,señal_suavizada,frecuencia,amplitude_rms,freq_media,freq_mediana
0,"[153.25111444 155.95969573 158.68500811 161.42705157 164.18582613
 166.96133177 169.7535685  172.56253632 175.38823522 178.23066522
 181.0898263  183.96571847 186.85834173 189.76769608 192.69378151
 195.63659804 198.59614565 201.57242435 204.56543414 207.57517502
 210.60164698 213.64485004 216.70478418 219.78144941 222.87484573
 225.98497314 229.11183163 232.25542122 235.41574189 238.99110152
 241.7865765  244.99709043 252.47532901 250.93467737 254.92345372
 258.32121645 258.02306838 256.22958731 260.10650619 266.79959431
 271.03570928 277.1586681  285.18447322 291.46107321 294.56935104
 299.39066882 305.20900359 305.08323593 313.12783807 320.33697209
 328.72582198 335.26803257 339.77435615 345.41146144 350.09184394
 355.64569629 358.18218536 361.00520772 360.35696421 363.92240872
 368.46388714 371.12309886 375.09778714 379.28823634 382.79037946
 387.61451296 394.1713625  401.99160316 409.93193411 417.33058265
 423.22272686 427.57424264 429.69089375 431.48352693 431.45626936
 435.28056592 434.11115332 434.85164938 434.45375907 430.27973063
 426.57475468 420.48907151 411.51457534 410.93078297 409.88211958
 412.58103983 413.16745117 414.79234967 415.65923067 414.32627334
 413.79947356 403.73846566 397.15626299 393.30372034 389.74315405
 388.02229669 388.9740104  387.45082175 386.55749072 390.33918611]",75.0,324.95434385196853,17977.871695902602,16066.401365652117
1,"[112.98336129 119.58362085 126.10927569 132.5603258  138.93677118
 145.23861184 151.46584777 157.61847897 163.69650544 169.69992719
 175.6287442  181.48295649 187.26256406 192.96756689 198.597965
 204.15375838 209.63494703 215.04153096 220.37351015 225.63088462
 230.81365437 235.92181938 240.95537967 245.91433523 250.79868606
 255.60843216 260.34357354 265.00411019 269.59004211 274.66003956
 278.53809177 282.90020951 291.21088084 290.70415896 293.47050665
 296.68324222 300.71393638 305.14876611 309.38917509 316.371219
 320.04682964 327.74601452 330.14872076 335.23508272 341.78063476
 348.75956444 355.3917114  358.82140977 361.98495255 366.5546989
 371.35675695 377.40194743 374.53818112 379.78162784 379.43833087
 384.12214535 386.26133842 387.98141051 389.30474093 393.1160005
 397.2134718  398.44839957 402.2004004  403.89800866 407.79509822
 409.37617986 414.93366365 418.49271778 425.02761573 435.87763031
 442.53562447 446.81368393 447.17604488 444.17176931 446.43366013
 446.48623987 450.91014975 447.93657286 446.10501268 446.09508269
 443.34044121 434.20427572 427.90250439 421.5686563  412.58597431
 410.4965319  410.5220888  409.221418   413.72733497 413.84962177
 410.80817629 406.88866853 405.45778088 405.68307352 402.20020841
 398.78686413 398.49271783 402.72753543 401.79144112 403.2027369 ]",76.0,344.4497787636112,18978.7995494554,18264.509046808864
2,"[ 79.86698966  89.50482849  98.95452692 108.21608496 117.28950261
 126.17477986 134.87191673 143.38091319 151.70176927 159.83448495
 167.77906024 175.53549513 183.10378964 190.48394374 197.67595746
 204.67983078 211.49556371 218.12315625 224.56260839 230.81392014
 236.8770915  242.75212246 248.43901303 253.9377632  259.24837299
 264.37084238 269.30517138 274.05135998 278.60940819 283.51232586
 287.16108343 291.15471046 297.39645877 300.65907506 301.76613248
 307.00795491 310.89373704 314.17126321 315.76344751 318.1819088
 321.82726443 323.365257   327.26830332 330.41697917 329.74620718
 334.68117289 337.68462389 339.55407953 341.36917895 342.92964728
 345.7619442  341.54816005 342.55879471 344.06253641 346.21287446
 344.41173213 342.95609832 344.11933761 346.54210929 344.28292143
 343.86349466 344.58990201 346.24328794 350.21236285 349.81961181
 351.52198468 352.93545723 357.44940829 368.99417126 381.01905434
 389.45420337 389.44826205 391.72119779 392.91694127 391.86097644
 397.59353375 403.70820559 403.93750674 406.22929368 405.29558138
 406.85063607 402.15250369 397.92223665 388.41840089 387.64784304
 388.53047629 390.31376834 387.56018844 391.56458014 392.39588262
 389.90729822 389.46183057 389.29294257 387.83989821 384.75210379
 382.08590142 382.63230313 383.82474431 383.00694255 381.90422304]",80.0,321.4791247586814,17630.670291494425,17045.824963372972
3,"[ 99.10749124 104.78470525 110.40249034 115.96084651 121.45977376
 126.89927209 132.27934149 137.59998198 142.86119354 148.06297618
 153.20532991 158.28825471 163.31175059 168.27581755 173.18045558
 178.0256647  182.8114449  187.53779617 192.20471853 196.81221196
 201.36027647 205.84891206 210.27811873 214.64789648 218.95824531
 223.20916522 227.4006562  231.53271827 235.60535141 240.11602757
 243.57233094 247.46667732 252.8963203  256.12052809 255.98439761
 260.004535   264.32371505 266.92263462 271.73483701 275.98953607
 281.54288066 286.67422172 290.45223333 293.15467325 300.74328713
 303.74167632 309.60059473 311.25366125 318.21736836 326.10061993
 330.82522886 337.16953429 341.61714686 342.59113901 345.10092506
 347.67519493 350.02935227 350.50099997 355.70859644 358.28843205
 359.02009917 361.28003293 367.13294479 370.43173113 378.33428739
 384.51964103 388.57581679 396.8033511  403.02603762 413.19838677
 418.70389689 423.74057191 425.58980777 427.33266058 428.83002914
 429.09387303 428.47165379 428.77132861 427.26151776 422.29994677
 419.7425343  411.87451291 403.84647065 398.55784599 392.47504717
 388.94146362 389.3002595  389.66484218 389.83949814 386.86287574
 386.84540571 381.9498615  378.00601224 371.01242641 372.57278966
 369.99378791 367.91974306 368.20118573 369.18367646 368.13977033]",75.0,316.12047473372945,17521.64633670472,16260.09590982713
4,"[ 77.1733434   85.54885275  93.76534491 101.82281988 109.72127765
 117.46071823 125.04114162 132.46254781 139.72493681 146.82830862
 153.77266323 160.55800065 167.18432087 173.65162391 179.95990975
 186.10917839 192.09942984 197.9306641  203.60288117 209.11608104
 214.47026372 219.6654292  224.70157749 229.57870859 234.2968225
 238.85591921 243.25599872 247.49706105 251.57910618 255.98133171
 259.26614486 262.87113841 269.90623957 270.68271262 272.03430992
 270.35166142 273.68593032 274.2356781  277.4600254  279.32875975
 281.26529301 284.72610179 288.01008834 292.04663391 296.98735548
 302.79929666 306.80309328 312.16568999 318.40646809 323.45838018
 328.52130643 333.56327351 337.25237489 339.20612471 336.67644403
 340.33215746 343.77998641 343.00394263 345.43743613 346.8087893
 350.38644509 351.77618234 353.38075246 356.29206839 362.05321467
 365.12793994 368.02392582 374.07699365 383.94373728 393.09303549
 400.16098746 403.68476327 405.8984679  407.01776904 410.44275034
 408.13543077 406.19195509 403.94766822 405.51542852 406.14146277
 405.55104081 399.87489399 393.99278576 388.48016743 382.51094693
 380.06936976 383.23655283 383.06712842 386.23503531 385.55792583
 384.36656394 379.83745158 375.56624689 372.45387887 367.3957782
 364.32006709 358.82680202 357.27627813 358.18059294 356.84931473]",74.0,310.97516215163716,17179.051728047336,16137.762975198835
5,"[ 79.52187031  86.57040967  93.53139449 100.40482476 107.19070049
 113.88902166 120.49978828 127.02300036 133.45865789 139.80676087
 146.0673093  152.24030318 158.32574252 164.3236273  170.23395754
 176.05673323 181.79195437 187.43962096 192.99973301 198.4722905
 203.85729345 209.15474185 214.3646357  219.486975   224.52175976
 229.46898996 234.32866562 239.10078673 243.78535329 248.95083562
 252.89182276 257.31372568 265.05011377 265.73659294 270.35492569
 275.96533548 280.43296043 284.92531224 290.69998223 293.45143013
 296.44753641 299.19194849 301.36767799 309.07732292 315.06237821
 320.33384253 326.74425522 331.29175683 336.85681501 340.7256806
 344.06307754 350.03822176 351.47629076 352.80076748 349.55193128
 349.32799818 348.78493306 350.54000917 354.70742474 355.12435532
 361.29414194 364.59536606 366.4269583  370.9889541  376.05000472
 378.56946681 385.12614686 389.06044037 397.41805082 409.36267521
 420.40431408 423.65562903 426.42053976 425.06084122 425.86152665
 425.95741321 426.9210427  428.9497351  432.88397843 429.78292
 428.61049953 422.47396913 413.81022824 406.46141386 401.9528593
 400.94459832 402.89185351 402.9739126  405.51307652 408.43908185
 408.67116503 405.97694069 405.44113344 404.40228765 403.36569586
 406.35106697 404.05224843 399.0349639  397.36434247 394.51086107]",78.0,324.0407453101902,18045.12507572639,16949.356113083195
6,"[ 56.35430761  65.48457079  74.44305684  83.22976574  91.84469749
 100.2878521  108.55922957 116.65882989 124.58665307 132.34269911
 139.92696801 147.33945976 154.58017436 161.64911183 168.54627215
 175.27165532 181.82526136 188.20709025 194.41714199 200.45541659
 206.32191405 212.01663437 217.53957754 222.89074357 228.07013246
 233.0777442  237.91357879 242.57763625 247.06991656 251.91840454
 255.53914575 259.51609463 267.04854606 268.67686095 273.45113239
 274.2536603  278.08083063 282.48189088 287.58909307 288.98322978
 291.25460098 292.71963585 292.9117047  294.93655951 293.1450633
 296.44129837 297.37403179 299.2129733  303.93033626 306.31007674
 313.54323157 317.88968113 324.16744933 329.18814713 329.55390783
 331.24751991 331.69190147 333.19051981 336.9375968  337.53553101
 338.2883416  337.0488232  339.75841087 343.64211017 345.99170991
 348.41682174 352.94492558 356.08601596 365.4915515  374.20530574
 379.38656008 384.88194663 383.92343556 383.0061255  385.27360098
 389.17854852 388.55562366 385.89276608 385.41835481 384.92010198
 384.09885726 379.93406383 373.44817791 369.43469867 369.05656319
 368.92601908 370.36484838 371.52772173 372.07872232 370.13707966
 367.04037449 359.97450591 352.34929213 346.81584165 342.33096544
 341.99815089 337.58242284 334.90896865 332.63070995 334.24597551]",75.0,298.78813064284685,16470.553348074227,15343.177669378183
7,"[ 53.75145274  63.79004467  73.62639095  83.26049159  92.69234657
 101.92195591 110.94931959 119.77443763 128.39731003 136.81793677
 145.03631786 153.05245331 160.86634311 168.47798726 175.88738576
 183.09453862 190.09944582 196.90210738 203.50252329 209.90069356
 216.09661817 222.09029713 227.88173045 233.47091812 238.85786014
 244.04255652 249.02500724 253.80521232 258.38317175 263.29162935
 266.93235366 270.90357614 278.22635691 279.85472517 284.38480115
 283.15694821 285.58945172 290.16355135 292.89165592 295.29196894
 300.59392033 305.95921686 311.24078907 314.77961483 320.08449626
 321.38035926 321.48519124 322.73963559 326.63196433 326.09419766
 328.2179118  330.5039468  332.59304767 331.60779745 333.9309684
 336.75401745 334.5362992  334.34671963 336.09540261 335.07414076
 334.96377189 334.92523092 337.12932352 335.66490746 334.80321894
 335.5516419  339.8833313  346.4016868  352.45911602 362.74648411
 369.53406501 373.948814   378.13499991 377.14411974 379.20953582
 379.49576625 382.53157997 383.46557696 381.89104552 381.94427537
 382.69608946 379.7749996  371.57106861 370.86512591 371.27692011
 366.89865834 368.05324373 368.9225184  371.93655803 371.41859522
 371.32771173 369.29279419 364.31875417 358.08528729 359.34995881
 358.26606582 359.46150584 360.60974759 365.88197174 362.30127168]",77.0,303.7762681281836,16719.957888462046,16194.755637517846
8,"[ 20.42497664  34.49508242  48.23296743  61.63863165  74.7120751
  87.45329776  99.86229964 111.93908074 123.68364106 135.0959806
 146.17609936 156.92399733 167.33967453 177.42313095 187.17436658
 196.59338144 205.68017551 214.43474881 222.85710132 230.94723305
 238.705144   246.13083417 253.22430356 259.98555217 266.41458
 272.51138705 278.27597332 283.7083388  288.80848351 294.14903865
 298.01211058 302.11559294 307.15006115 308.18203722 311.66305717
 314.61480683 313.6052825  318.34843519 317.78608513 319.74861346
 321.71488418 323.45116554 327.71796639 327.94270169 330.30718947
 330.1485212  333.69471909 336.48961057 339.27323673 341.82964104
 345.19295417 348.39120884 347.71674985 350.33564328 352.34564293
 350.89132608 352.75121497 353.29063123 354.20922171 351.35298547
 349.80019364 351.22919437 349.0739064  352.18983341 352.21369289
 355.2226238  357.63980851 361.66729494 372.12742167 382.36512937
 387.44210248 390.03414697 392.18671027 394.75325316 392.64655576
 391.93020533 390.90833107 390.71981195 389.43876896 389.15982451
 391.69582256 385.11742328 381.46468526 377.10172464 377.46162572
 377.46126075 373.03010073 372.32463387 371.34186025 369.74377951
 363.4608107  357.43820663 351.50676499 341.09374893 339.52575903
 333.84759964 334.05101985 330.56274914 330.04152238 328.48152419]",73.0,314.1663960503409,17090.58167931833,17004.650059789237
9,"[ 20.38047321  35.70744996  50.67445922  65.281501    79.5285753
  93.4156821  106.94282142 120.10999326 132.91719761 145.36443447
 157.45170384 169.17900573 180.54634013 191.55370705 202.20110648
 212.48853842 222.41600287 231.98349984 241.19102933 250.03859132
 258.52618583 266.65381285 274.42147239 281.82916444 288.87688901
 295.56464608 301.89243568 307.86025778 313.4681124  319.34667521
 323.60391918 328.13187133 336.83678792 340.60210192 342.91479247
 342.70777142 345.66290191 348.66498202 350.29853208 350.86031569
 352.44378699 352.40761612 354.12966227 354.93891627 355.12837449
 357.75293474 357.27975909 358.98541484 363.3101764  365.49211171
 364.811058   364.3171299  363.32285729 359.88158977 357.62200211
 355.19913025 356.68584645 353.62558735 351.22329775 351.16632566
 349.1510742  350.11690308 349.42767471 351.71194529 354.56453229
 355.55271759 361.79111577 366.2260479  369.99120525 375.56812604
 377.39711704 380.41277138 381.76896912 379.9052559  381.95346333
 382.18617125 379.97813796 380.17459752 380.26847531 380.57099133
 376.28100453 365.28994263 360.46395214 355.48355741 349.1799535
 343.46311243 343.66577602 345.47742996 345.51617054 346.54917462
 347.0673789  342.58177016 336.83247819 332.39496612 329.47643896
 322.14441857 319.94754584 318.37740993 316.33468093 313.57382383]",75.0,318.55900254633303,17018.413364477252,18074.833186695992
10,"[ 14.53845222  29.59764708  44.28427936  58.59834905  72.53985615
  86.10880066  99.30518258 112.12900192 124.58025867 136.65895283
 148.3650844  159.69865339 170.65965978 181.24810359 191.46398481
 201.30730345 210.77805949 219.87625295 228.60188382 236.9549521
 244.9354578  252.5434009  259.77878142 266.64159935 273.13185469
 279.24954745 284.99467761 290.36724519 295.36725018 300.54692708
 304.2495724  308.13188963 314.28074451 314.07268985 316.96260129
 319.00597145 320.76933977 321.0709237  324.64773573 325.23152706
 325.77059297 327.17000532 329.17476736 330.37553623 332.9511023
 333.54048204 332.77366482 329.77514147 329.01638512 331.17214634
 331.10260083 333.20436323 332.19961764 329.44083701 331.0198874
 329.69246365 327.1460573  327.47977727 328.35568145 328.67175925
 320.54440325 321.35914423 322.26273739 321.49452554 322.20490312
 324.55617661 328.9520952  334.03469183 340.39011248 353.07433862
 361.22889001 366.53553409 366.86919479 369.33648941 369.65352313
 369.06632565 370.52686681 373.29992393 371.96252648 375.22043413
 374.78133575 371.47564715 365.50307505 362.81764349 363.16325339
 363.0049649  361.29096287 363.13609842 363.02313717 364.49324054
 362.00300218 355.34453988 350.04333324 346.64709775 344.23166055
 345.95916458 347.96610816 345.62726073 345.13802524 343.85099357]",79.0,306.6229076799566,16632.974040478162,16391.282606006298
11,"[ 27.28146641  41.84433439  56.05295797  69.90733717  83.40747198
  96.5533624  109.34500842 121.78241006 133.86556731 145.59448016
 156.96914863 167.98957271 178.6557524  188.9676877  198.92537861
 208.52882513 217.77802725 226.67298499 235.21369834 243.4001673
 251.23239187 258.71037205 265.83410784 272.60359924 279.01884625
 285.07984887 290.7866071  296.13912095 301.1373904  306.33701078
 310.07119613 314.00673241 320.85954474 322.84526595 325.71696234
 325.71972893 325.74210445 328.71729683 330.89859727 331.69950449
 330.51336888 332.6283942  332.69469786 332.75777704 335.02985298
 333.28214837 330.77443688 331.16009422 330.75814654 329.47914581
 331.95822092 333.81628529 333.13270155 331.89536777 330.44126496
 327.47267728 327.18485803 324.55725654 325.26782525 326.97942168
 327.63413661 327.10075274 328.29459675 326.81905456 327.85056278
 328.22486161 333.5635848  334.21896082 340.16053487 349.15423583
 354.34737197 352.48965699 351.57014615 352.63073402 348.89733937
 346.0900704  350.87146453 352.65110229 352.43813531 353.34823995
 353.71072455 347.36984874 340.39083853 336.86007078 335.69429482
 333.07521827 333.21060854 334.26861324 335.29338573 334.10797054
 330.63428459 328.04782166 321.905254   316.26550491 315.27641313
 315.53434134 313.02556559 313.71896902 315.21980317 313.47683956]",70.0,300.5657393022916,16061.893557959635,16371.194595178269
12,"[  7.37365613  23.75871994  39.72812351  55.28186681  70.41994986
  85.14237265  99.44913518 113.34023746 126.81567948 139.87546124
 152.51958274 164.74804399 176.56084498 187.95798571 198.93946619
 209.50528641 219.65544637 229.38994607 238.70878552 247.61196471
 256.09948364 264.17134231 271.82754073 279.06807889 285.8929568
 292.30217444 298.29573183 303.87362896 309.03586583 314.34653842
 318.11335881 322.02861491 329.47844078 334.22927496 332.98119757
 334.53659605 335.82341893 334.91808717 336.22055312 336.17718073
 337.62105715 337.99288475 336.0013519  336.56336625 336.59502702
 337.52306659 337.8785665  335.89018243 334.15686411 335.74156311
 335.63867062 333.5110724  334.18330299 334.7308425  333.15583859
 333.7718446  332.26985422 329.76451285 325.69653174 320.8962249
 320.98393284 316.73268128 307.96790439 305.71868159 305.76521166
 307.5583713  305.18421889 306.60972781 309.80009365 316.78772485
 318.55232189 319.71853069 318.03023227 318.42807054 317.10368053
 315.56514392 316.06787311 319.66600177 324.23415107 324.90493267
 321.52821966 317.08186033 312.13770714 310.07500805 310.86683577
 311.91919704 312.27863352 313.09369093 309.45939032 312.69736302
 310.60070689 305.20363912 299.93926526 294.40162528 291.54593258
 284.25263447 279.8608729  278.59383689 278.73222053 279.04940401]",41.0,290.89391988142455,15270.33364300627,16616.63506165592
13,"[  4.38441142  22.70773004  40.55265444  57.91918463  74.8073206
  91.21706236 107.1484099  122.60136322 137.57592233 152.07208722
 166.0898579  179.62923436 192.6902166  205.27280463 217.37699845
 229.00279805 240.15020343 250.81921459 261.00983154 270.72205428
 279.9558828  288.7113171  296.98835719 304.78700306 312.10725471
 318.94911215 325.31257538 331.19764439 336.60431918 342.11499774
 345.98248612 349.95397826 356.54421588 356.04512467 353.69123458
 358.72853218 357.84862184 359.18666498 357.42998506 356.42854272
 359.1159715  361.20716342 359.84004069 360.15716656 360.14172305
 357.77975455 357.85232608 355.59242603 355.93060293 355.19081276
 354.45185788 354.022145   351.79553272 351.49036791 348.35005649
 344.17243973 341.30858335 340.89929539 345.0802865  341.06384395
 338.46712079 340.74830303 338.81816671 342.92812367 348.13727847
 346.20167088 347.15156808 359.05243085 370.78025564 384.39242021
 393.89815232 403.74087124 404.97555445 403.7530155  412.65898759
 418.20241311 420.44766517 428.67268806 434.52544113 436.68295287
 444.25719144 444.26290369 443.11247805 443.05372972 442.86388434
 451.24502994 455.25069865 460.45527128 466.38439113 468.19640784
 469.69819804 468.36215032 464.31676405 462.89901889 461.51342792
 462.30640486 465.7955685  466.38859275 464.73485978 467.16954781]",90.0,353.6361104364525,19457.37827757954,17563.471359497133
14,"[  2.76095762  20.66676706  38.09744863  55.05300232  71.53342812
  87.53872605 103.06889609 118.12393826 132.70385255 146.80863896
 160.43829749 173.59282813 186.2722309  198.47650579 210.2056528
 221.45967193 232.23856319 242.54232656 252.37096205 261.72446966
 270.6028494  279.00610125 286.93422522 294.38722132 301.36508953
 307.86782987 313.89544232 319.4479269  324.5252836  329.66938359
 333.25461335 336.90658641 342.51541442 345.47114003 346.87110557
 347.10927223 345.82693574 345.50587364 344.65260976 342.80625869
 340.92747018 336.75884262 338.73102612 337.06959459 333.03970243
 331.67750533 331.52899374 329.4340197  328.52008605 328.67645926
 331.73083976 328.63579274 326.90311103 326.75614844 323.37800017
 319.58207764 316.07335791 312.27025897 310.44805221 304.37503722
 301.70480944 299.58527535 299.932547   300.36155002 300.17976256
 302.82103278 308.26166987 309.22715272 313.80175888 318.8853079
 324.17810869 330.5981673  331.59844786 331.44381179 332.12751279
 329.5025144  334.09021522 334.68225597 334.62176549 328.27923604
 324.17427805 320.16887366 313.82970701 310.44370068 310.55039009
 308.1558348  307.62990783 308.25336942 311.83574385 313.48861986
 310.4003126  304.91179423 301.98056905 297.34163409 292.45005577
 290.94800734 290.89650519 283.18293265 281.70735605 281.45565099]",35.0,294.2246778671564,15377.401035638386,16345.84424599191
15,"[ 319.86052683  445.33977177  567.617518    686.69376551  802.5685143
  915.24176438 1024.71351573 1130.98376837 1234.05252229 1333.91977749
 1430.58553397 1524.04979174 1614.31255079 1701.37381112 1785.23357273
 1865.89183563 1943.3485998  2017.60386526 2088.657632   2156.50990002
 2221.16066933 2282.60993991 2340.85771178 2395.90398493 2447.74875937
 2496.39203508 2541.83381208 2584.07409036 2623.11286992 2663.20470549
 2691.58593289 2721.0202163  2753.23215256 2739.0130177  2723.26623772
 2688.14952457 2600.60791712 2575.11465044 2513.66090544 2492.33804906
 2528.54869683 2533.89857509 2612.60151958 2686.22209807 2781.03771415
 2831.40235813 2898.37837592 2967.88832214 3043.4597121  3112.35498546
 3175.41991536 3212.63911631 3272.07483292 3340.23740133 3410.22181625
 3440.51244992 3472.56065914 3537.69894947 3564.70253971 3589.70654922
 3636.08531419 3635.44408738 3691.96412941 3732.26508985 3783.47138561
 3815.24985582 3887.21486937 3922.66277553 3990.14135197 4073.25689703
 4178.64725711 4200.23963952 4187.15744296 4198.37208703 4199.33662004
 4207.45612064 4207.79496234 4152.44744133 4158.38300666 4130.57726326
 4077.07357495 4015.51901482 3917.04177641 3837.80107355 3782.3569519
 3693.07575617 3640.38469302 3534.45510892 3518.28524502 3452.86179061
 3370.29441039 3244.84788366 3106.27916334 2980.31968055 2881.60348305
 2770.70131284 2686.96141049 2576.1484214  2520.46433369 2528.4315456 ]",76.0,3019.704325627859,163868.19313210924,155638.1950275981
16,"[ 115.87550511  252.34948255  385.62669418  515.70713999  642.59081999
  766.27773417  886.76788254 1004.0612651  1118.15788185 1229.05773278
 1336.7608179  1441.2671372  1542.57669069 1640.68947837 1735.60550023
 1827.32475628 1915.84724652 2001.17297095 2083.30192956 2162.23412235
 2237.96954934 2310.50821051 2379.85010587 2445.99523541 2508.94359914
 2568.69519706 2625.25002916 2678.60809545 2728.76939593 2781.37972483
 2819.50169944 2860.07270248 2920.48446247 2923.47144701 2924.78268747
 2901.15185633 2886.10350409 2906.05254583 2917.32433459 2948.03927072
 2987.24066333 3028.90161023 3057.46766616 3134.58325498 3192.44444822
 3249.91621949 3280.81819774 3356.75409091 3398.07918318 3454.83779668
 3478.22142596 3511.82123872 3539.75380468 3554.08145268 3574.81837957
 3594.31867611 3594.46053556 3601.5497288  3614.89590682 3637.47966956
 3619.85952664 3589.69570691 3576.67720428 3564.58013932 3565.19348915
 3567.3028344  3586.40415956 3613.20860027 3684.31279168 3738.84623217
 3776.11834813 3791.85865996 3796.27653056 3766.75248986 3778.87454478
 3754.88175489 3743.32860677 3731.19939743 3740.19628915 3738.9677122
 3694.965994   3616.08862592 3505.05982443 3455.19393736 3426.36526731
 3376.1149078  3331.9213607  3318.85676088 3265.77521723 3238.70665983
 3173.57618414 3081.06977801 2965.16146719 2866.24201254 2792.97396452
 2736.30932648 2667.53101832 2677.89498286 2650.10894763 2654.7642093 ]",72.0,2977.966513360343,159989.03416320833,171599.0616675338
17,"[ 304.92393982  448.93991453  589.47170683  726.51931673  860.08274423
  990.16198932 1116.757052   1239.86793229 1359.49463016 1475.63714564
 1588.2954787  1697.46962937 1803.15959763 1905.36538348 2004.08698693
 2099.32440798 2191.07764662 2279.34670285 2364.13157668 2445.43226811
 2523.24877713 2597.58110375 2668.42924797 2735.79320978 2799.67298918
 2860.06858618 2916.98000078 2970.40723297 3020.35028275 3072.37152698
 3109.78383511 3149.27433769 3194.45409175 3181.49057577 3188.15286601
 3205.12105828 3179.75996158 3176.30380794 3193.15856844 3173.80266162
 3212.07446242 3256.25729119 3286.82781937 3359.89083257 3422.42860811
 3468.78067102 3492.51745854 3548.89642496 3615.44305826 3640.36821734
 3652.80151278 3680.6382104  3684.65888527 3692.36479039 3719.21025886
 3735.61592486 3723.40503962 3712.40457183 3689.89081503 3677.80333527
 3700.27454227 3690.65908573 3690.5942237  3668.50280376 3668.45730689
 3670.67747707 3682.27571504 3725.09059984 3773.928224   3839.7283685
 3878.71496682 3897.71510102 3919.7439381  3927.04868485 3918.69026003
 3920.19324221 3877.41230763 3877.15207313 3923.29206501 3879.01758243
 3809.37560884 3720.39844936 3612.96026253 3534.3428165  3493.67815539
 3465.11131483 3374.51557246 3350.48599113 3272.15215834 3226.11821901
 3187.45585386 3103.6286566  2979.02943079 2919.65279882 2854.17377052
 2816.99389928 2782.08516727 2749.03316908 2751.64834598 2711.77678182]",73.0,3134.1791140758746,166561.96048946294,180509.05914409825
18,"[ 302.48178896  460.3433605   614.01661752  763.50156002  908.798188
 1049.90650147 1186.82650042 1319.55818485 1448.10155476 1572.45661016
 1692.62335103 1808.60177739 1920.39188923 2027.99368656 2131.40716936
 2230.63233765 2325.66919141 2416.51773066 2503.1779554  2585.64986561
 2663.93346131 2738.02874248 2807.93570914 2873.65436129 2935.18469891
 2992.52672202 3045.6804306  3094.64582467 3139.42290422 3184.79077402
 3216.41211977 3248.62425577 3260.01743214 3253.34401452 3239.3954529
 3204.17796643 3226.8301503  3215.17585421 3240.30865457 3228.36018244
 3173.05052108 3181.73549704 3196.52110407 3230.94198481 3260.2061116
 3280.15591225 3320.13605816 3334.92637653 3377.27754582 3388.86018448
 3395.27879653 3440.69330296 3460.84763417 3455.8506988  3433.2162954
 3427.33245382 3380.94435837 3410.97235568 3395.6955191  3399.7818568
 3363.12347984 3317.39775869 3328.30923506 3360.94486908 3376.62233636
 3416.12744558 3419.81572413 3441.14090968 3494.3098983  3548.52128769
 3596.88630319 3639.81333502 3679.65510011 3696.829173   3740.49371025
 3754.22400185 3755.99295935 3724.75046497 3688.24745992 3695.14092477
 3668.13695824 3608.51256773 3515.66261879 3448.38614636 3375.10794151
 3324.32461983 3274.72640598 3246.56186392 3196.0487119  3127.74323391
 3090.68641612 2996.71030419 2944.62857695 2849.68101896 2783.63977873
 2770.73268563 2743.36808797 2696.80625923 2674.32620156 2616.72426659]",76.0,3035.308715186892,160041.42275179524,167909.04443295457
19,"[ 317.79228953  467.08176068  612.54378416  754.17835998  891.98548813
 1025.96516862 1156.11740144 1282.44218659 1404.93952408 1523.6094139
 1638.45185606 1749.46685055 1856.65439738 1960.01449654 2059.54714803
 2155.25235186 2247.13010802 2335.18041652 2419.40327735 2499.79869052
 2576.36665602 2649.10717385 2718.02024402 2783.10586653 2844.36404136
 2901.79476854 2955.39804804 3005.17387988 3051.12226406 3098.23920022
 3131.53668941 3166.00273059 3195.38638486 3205.58658017 3177.17379694
 3181.23642128 3185.48469067 3171.19483641 3169.86509564 3146.9520865
 3163.94975826 3161.07703475 3158.91600962 3199.69707178 3231.0319179
 3263.44069487 3302.48649799 3325.57531446 3343.58614522 3340.57799994
 3377.72638968 3393.77300856 3395.04976126 3403.69434761 3403.00955481
 3426.2816529  3448.17606978 3416.31838783 3400.44531783 3430.32059514
 3436.78696782 3442.19850941 3453.93811139 3498.46985478 3518.08344744
 3512.73439783 3530.82413781 3585.57919943 3653.55810546 3725.88666925
 3784.47726921 3826.57020653 3865.37150047 3891.74573777 3939.44291381
 3973.04905175 3958.93687364 3947.39132385 3942.09866918 3929.4174813
 3880.13423702 3809.3327434  3764.0916717  3720.82735688 3697.61849331
 3638.97296662 3583.91112707 3559.1139305  3540.73080125 3499.26771982
 3469.04574061 3371.60727533 3303.1464215  3244.87491847 3205.49878117
 3169.18461444 3119.27865611 3094.15902847 3048.56455115 3006.30617316]",75.0,3122.037195112033,167854.36260303398,166287.32074031516
20,"[ 397.508253    537.62265293  674.22172838  807.30547936  936.87390587
 1062.92700791 1185.46478547 1304.48723856 1419.99436718 1531.98617132
 1640.46265099 1745.42380619 1846.86963692 1944.80014317 2039.21532495
 2130.11518226 2217.49971509 2301.36892345 2381.72280734 2458.56136675
 2531.8846017  2601.69251216 2667.98509816 2730.76235968 2790.02429673
 2845.77090931 2898.00219741 2946.71816105 2991.9188002  3038.56760797
 3071.7741051  3106.42877084 3140.03134773 3157.8748334  3144.73419071
 3083.8267519  3073.12414857 3042.37414231 3051.9060356  3078.50010172
 3079.99592344 3086.75299972 3128.12405768 3153.83478917 3209.28726097
 3230.91465228 3269.66558685 3293.22199894 3353.99247872 3390.34475626
 3424.31456804 3435.92139409 3475.16578121 3512.86586294 3511.2575545
 3546.62949768 3567.34758776 3569.61385659 3598.72235156 3614.54482975
 3640.61545044 3664.51790804 3674.94107361 3676.45534275 3673.92383676
 3682.8703684  3714.623256   3745.12850502 3809.53198008 3910.80964509
 4000.49600516 4030.59650715 4028.17843778 4047.27399403 4033.13099483
 4015.88955874 4031.41443734 4043.80401556 4030.68422861 4021.39201093
 4038.53676244 3952.93308138 3854.10374949 3798.90047973 3743.49307363
 3704.44525722 3696.88593343 3671.91176625 3622.65278176 3561.06482709
 3497.98399776 3409.37578212 3325.46835502 3216.68212712 3162.49097598
 3107.10009536 3062.6931864  3007.44147586 3036.7246086  3056.44500906]",73.0,3165.2734799599434,170680.22129414082,168671.31072937354
21,"[ 400.83319221  555.5945737   706.33571148  853.05660555  995.7572559
 1134.43766254 1269.09782546 1399.73774467 1526.35742017 1648.95685196
 1767.53604003 1882.09498439 1992.63368503 2099.15214196 2201.65035518
 2300.12832469 2394.58605048 2485.02353256 2571.44077092 2653.83776557
 2732.21451651 2806.57102374 2876.90728725 2943.22330705 3005.51908313
 3063.7946155  3118.04990416 3168.2849491  3214.49975034 3261.68595416
 3294.86862166 3329.02269175 3372.20951134 3353.26688932 3336.34506897
 3324.06669087 3296.44603217 3281.33913161 3306.24502698 3263.39925821
 3316.00979309 3346.43852286 3364.51756595 3375.88660043 3429.79939799
 3451.63192422 3515.43756428 3537.77552537 3582.60342273 3628.14934832
 3668.64186792 3694.85213847 3722.9410931  3750.75145944 3722.68469315
 3714.78147626 3704.47807938 3674.60600958 3652.65616325 3618.83866983
 3588.70926282 3584.16950438 3579.06631953 3590.46597636 3589.38297827
 3612.18557737 3639.6679036  3676.8476516  3741.07297592 3812.56359888
 3877.38467951 3927.6314125  3965.05389517 3961.00271314 3951.32154857
 3975.68282937 3918.29952219 3943.07201862 3933.12162464 3915.0719908
 3862.95596108 3782.24391383 3700.00301159 3639.59551801 3539.12349012
 3507.10939045 3486.75611259 3461.6129038  3423.5338654  3416.21866018
 3338.23016855 3246.18925078 3162.34316666 3076.82542869 2993.18952901
 2918.90122646 2876.73202427 2845.43886475 2869.30750362 2792.93465406]",75.0,3205.842997667725,169784.7332817366,180605.7057318409
22,"[ 441.57359615  605.45276534  764.96646293  920.11468892 1070.89744331
 1217.3147261  1359.36653729 1497.05287688 1630.37374487 1759.32914126
 1883.91906605 2004.14351923 2120.00250082 2231.49601081 2338.6240492
 2441.38661599 2539.78371118 2633.81533477 2723.48148676 2808.78216715
 2889.71737594 2966.28711313 3038.49137872 3106.3301727  3169.80349509
 3228.91134588 3283.65372507 3334.03063266 3380.04206865 3426.58683137
 3458.96852583 3491.88354702 3549.45857395 3534.63847066 3512.43868976
 3491.71208524 3471.98322798 3458.81241198 3474.8377951  3482.22665873
 3499.43484664 3477.39725765 3477.6933401  3492.05679159 3516.12805889
 3529.32635603 3502.3304599  3495.03408624 3495.59937775 3511.70817493
 3502.88466405 3503.36080835 3483.88424491 3483.45625156 3496.77030442
 3488.9421414  3470.79592407 3451.15842062 3451.43788091 3442.73270017
 3445.70856312 3442.70164893 3422.14374219 3418.54705841 3432.62342735
 3421.83019462 3426.9998016  3431.46164374 3521.21938888 3602.74130927
 3660.59688105 3695.09652378 3690.28906177 3706.55379819 3771.41956339
 3773.00934933 3758.23157553 3770.92648584 3795.72589772 3818.29527573
 3803.6769456  3732.85671017 3681.61931689 3631.47193869 3618.94993325
 3584.60612689 3570.88283042 3553.07262777 3557.05570871 3543.25314175
 3501.00409025 3429.73962833 3351.37189461 3303.46768777 3262.18245502
 3249.98758724 3244.34141971 3229.31743397 3224.75139582 3243.41609125]",79.0,3223.724001032397,170611.34725351995,173608.96688708998
23,"[ 415.73866173  561.53113951  703.72225519  842.31200877  977.30040024
 1108.68742962 1236.47309689 1360.65740206 1481.24034513 1598.2219261
 1711.60214496 1821.38100173 1927.55849639 2030.13462895 2129.10939941
 2224.48280776 2316.25485402 2404.42553817 2488.99486022 2569.96282017
 2647.32941802 2721.09465377 2791.25852741 2857.82103895 2920.78218839
 2980.14197573 3035.90040097 3088.05746411 3136.61316514 3186.93357566
 3222.9204809  3260.67209563 3298.79677869 3274.44377598 3248.23000325
 3208.44635647 3231.94956545 3233.95134102 3242.97778462 3265.42150643
 3309.526709   3349.0312071  3413.33810603 3457.39219091 3505.45843012
 3547.73561505 3606.00832581 3637.49531334 3686.33486361 3728.67794206
 3751.88862662 3739.82518522 3792.85198413 3816.85121278 3800.55760015
 3792.91677118 3797.11686288 3800.00391739 3755.18945025 3715.66794697
 3673.32220401 3697.73378864 3685.63113585 3680.56961003 3699.4401417
 3729.63941908 3732.14414316 3692.61834977 3763.69789409 3809.67408071
 3859.08542478 3862.32634028 3894.92005095 3932.06604151 3925.06396442
 3928.83150742 3885.52167412 3844.85465114 3795.00739    3776.94157306
 3728.56669807 3660.7616254  3563.97117141 3489.2203274  3433.97475789
 3386.00730566 3391.79099506 3351.25486222 3373.40409696 3348.14751449
 3315.1267508  3240.14952102 3148.63462725 3063.1099895  2974.7400329
 2911.57002271 2909.64652702 2931.36439262 2927.14562314 2900.16051738]",73.0,3192.9105134635142,169270.94557082086,185149.82524613375
24,"[ 737.25005172  871.0455443  1001.48147538 1128.55784498 1252.27465308
 1372.63189969 1489.62958481 1603.26770844 1713.54627058 1820.46527122
 1924.02471037 2024.22458804 2121.06490421 2214.54565889 2304.66685207
 2391.42848377 2474.83055397 2554.87306269 2631.55600991 2704.87939564
 2774.84321988 2841.44748262 2904.69218388 2964.57732364 3021.10290191
 3074.2689187  3124.07537398 3170.52226778 3213.60960009 3258.06712309
 3289.70558023 3322.71422806 3360.06796296 3357.33619836 3381.14186461
 3324.70631726 3303.09047103 3284.69896375 3299.8194611  3299.2509996
 3284.48675879 3326.69681036 3357.99921849 3387.94207117 3478.58758607
 3484.62694617 3542.83114365 3613.37763997 3616.16443887 3631.01729959
 3615.23114628 3628.62488829 3617.00525651 3618.00001126 3610.64784379
 3601.13025285 3580.28268192 3552.33870648 3545.08732885 3536.06341577
 3488.88450128 3510.02501583 3483.94925422 3482.2475174  3488.13952256
 3514.38592797 3562.92149905 3555.11845007 3599.71202022 3702.44767594
 3772.29108212 3775.595396   3802.20263406 3815.34710399 3870.76219128
 3848.93921069 3846.70679262 3883.51001457 3852.29668721 3872.48794501
 3864.12666704 3798.65774162 3715.78244358 3647.41864717 3616.81350593
 3615.19203676 3587.94870144 3556.27236645 3557.72081858 3535.62836743
 3537.51912527 3501.56869969 3446.31025477 3394.41659789 3370.02897264
 3339.55997845 3306.11396818 3292.02338686 3286.62515234 3242.44364338]",77.0,3232.5090503811366,172184.60562629567,179340.7024968309
25,"[ 431.23075329  594.63552031  753.8452823   908.86003927 1059.67979122
 1206.30453815 1348.73428006 1486.96901694 1621.0087488  1750.85347564
 1876.50319746 1997.95791426 2115.21762603 2228.28233278 2337.15203451
 2441.82673122 2542.30642291 2638.59110957 2730.68079121 2818.57546783
 2902.27513943 2981.77980601 3057.08946756 3128.20412409 3195.1237756
 3257.84842209 3316.37806356 3370.7127     3420.85233142 3472.24507483
 3508.5465792  3546.10119556 3589.71612634 3611.65613216 3634.12812115
 3633.28656107 3624.10534179 3587.57059992 3572.80105049 3604.09861366
 3613.36256522 3602.76435957 3571.93981583 3620.31489011 3699.56627588
 3702.90527553 3726.6187995  3708.93916865 3704.64519126 3733.73660639
 3737.4083277  3746.10124643 3752.4037144  3744.51991207 3713.78540068
 3670.05237561 3675.3939942  3665.92299435 3667.54411964 3602.25086248
 3547.8422276  3512.02641892 3524.60330573 3511.39949022 3503.50753365
 3491.69320347 3519.84135654 3550.25884859 3624.89020012 3659.86168971
 3741.54302885 3774.98161224 3787.54625268 3779.9658713  3753.07776695
 3771.96040204 3795.71171053 3736.062513   3703.08082844 3663.82296068
 3639.21996215 3592.02835305 3541.64257654 3470.90210657 3417.13520553
 3379.14433806 3370.30844408 3371.6391896  3381.05507643 3353.3627331
 3314.28702298 3219.53651807 3164.80926698 3088.74910908 3060.8369185
 3038.81740735 2965.5775027  2928.55341865 2882.2969654  2913.52864318]",76.0,3247.2085937549714,169746.62369804687,184911.75504901027
26,"[ 701.81086627  853.38901882 1000.96127697 1144.5276407  1284.08811003
 1419.64268495 1551.19136546 1678.73415157 1802.27104326 1921.80204055
 2037.32714343 2148.84635191 2256.35966597 2359.86708563 2459.36861088
 2554.86424172 2646.35397816 2733.83782018 2817.3157678  2896.78782101
 2972.25397982 3043.71424421 3111.1686142  3174.61708978 3234.05967095
 3289.49635772 3340.92715007 3388.35204802 3431.77105156 3475.82913489
 3506.59137542 3537.99269574 3530.28574519 3526.94745746 3510.92458707
 3504.90818372 3476.85402947 3448.67349547 3456.02819773 3443.98124028
 3437.16297282 3453.35654225 3489.79487693 3474.12835197 3509.8515201
 3501.24501948 3518.48475781 3560.86567955 3568.31653012 3560.91650796
 3588.29626972 3580.45793785 3630.44937097 3598.20308845 3624.80836973
 3616.94451506 3631.41378438 3649.30361963 3593.95177958 3563.65421237
 3578.08485778 3633.66050811 3667.10206273 3704.43522665 3709.97583511
 3722.66056763 3779.8707145  3831.8297233  3900.91197618 3964.90704059
 3988.3047474  4028.39337703 4056.42846442 4057.39171176 4034.54209288
 4039.15710627 4069.36124264 4055.17747985 4047.80177713 4003.45729276
 3912.14546649 3835.9088972  3759.64925979 3693.15638032 3640.2316568
 3574.3945901  3584.65450652 3512.41982214 3505.05567947 3427.28527326
 3380.32896553 3297.50244351 3170.0227793  3102.73056891 3100.64227772
 3036.00042979 3014.37445456 3000.56365123 2988.7776135  2994.72877636]",76.0,3311.694590998108,174128.70913063947,176949.86118797938
27,"[ 737.74507417  882.68225856 1023.821597   1161.16308948 1294.70673602
 1424.45253659 1550.40049122 1672.55059989 1790.9028626  1905.45727937
 2016.21385017 2123.17257503 2226.33345393 2325.69648687 2421.26167387
 2513.0290149  2600.99850999 2685.17015912 2765.54396229 2842.11991952
 2914.89803078 2983.8782961  3049.06071546 3110.44528886 3168.03201632
 3221.82089781 3271.81193336 3318.00512295 3360.40046659 3403.55561543
 3433.797616   3464.79942177 3475.13777545 3434.67599011 3425.73063756
 3409.80736226 3422.55375829 3410.81421098 3421.55945501 3419.6280966
 3462.35422207 3498.76117295 3522.60717073 3576.97034785 3620.7830077
 3661.30562234 3686.4188974  3691.98755929 3703.52517656 3726.68468916
 3753.55203588 3744.50145432 3738.1589992  3706.86251314 3721.66614019
 3698.99413061 3681.02761436 3649.99774745 3613.63357676 3575.82112483
 3519.70105799 3498.03288115 3468.32579434 3439.75614627 3430.03686897
 3455.32077356 3539.5683177  3561.84540731 3595.11739407 3657.31913352
 3694.15189433 3703.2480693  3706.14828976 3746.34287271 3733.83714444
 3788.94996199 3771.14047385 3771.79894588 3770.64956146 3745.15280759
 3703.66498529 3640.08549376 3559.95509134 3512.06378132 3486.67771268
 3448.85604759 3419.8203076  3410.25680639 3413.82845598 3409.15357729
 3367.40272253 3288.05924264 3180.33453586 3112.23939837 3087.70636628
 3102.27059336 3088.50585638 3096.67518259 3135.06726859 3094.36541169]",75.0,3244.050452505026,170151.85332567838,185142.5757813972
28,"[ 889.81285517 1060.09673658 1225.59027402 1386.29346748 1542.20631697
 1693.32882249 1839.66098403 1981.20280159 2117.95427518 2249.9154048
 2377.08619044 2499.46663211 2617.05672981 2729.85648353 2837.86589327
 2941.08495904 3039.51368084 3133.15205866 3222.00009251 3306.05778239
 3385.32512829 3459.80213021 3529.48878816 3594.38510214 3654.49107214
 3709.80669817 3760.33198022 3806.0669183  3847.01151241 3887.34822275
 3914.5296687  3941.10323088 3946.56919476 3914.4480448  3895.22587901
 3863.4717983  3807.43427361 3786.30590732 3776.43563437 3770.86836629
 3802.46395202 3806.07415341 3796.92768084 3803.96150901 3860.261587
 3836.41744043 3837.96108656 3837.63581675 3837.09579184 3846.76522901
 3842.77143102 3833.71273723 3861.09617065 3849.77300909 3809.5858169
 3805.36937956 3795.91799662 3763.65135521 3712.51358317 3688.02405287
 3692.0015184  3700.80460297 3745.27590247 3740.51827515 3761.46896288
 3755.00307171 3777.14412693 3802.49985263 3870.76521583 3934.86243089
 3975.83474066 3984.04630677 3988.94774456 3992.50281006 3999.30485795
 4002.80383401 4032.49007598 4048.05087289 4065.73867163 4038.61001249
 3971.07301042 3900.51913514 3828.81668301 3788.52837506 3745.65483222
 3695.35516939 3659.87925793 3661.87902062 3625.83514049 3571.80945758
 3535.46678117 3431.88293105 3370.38568999 3266.6013927  3254.80871599
 3258.38344764 3237.67050064 3236.49124589 3277.59239663 3288.52352733]",78.0,3520.1734230463026,182339.8421433573,190315.03388615174
29,"[ 992.56684742 1142.18969791 1287.78485623 1429.35232237 1566.89209634
 1700.40417813 1829.88856775 1955.34526519 2076.77427045 2194.17558354
 2307.54920445 2416.89513319 2522.21336976 2623.50391414 2720.76676636
 2814.00192639 2903.20939425 2988.38916994 3069.54125345 3146.66564479
 3219.76234395 3288.83135093 3353.87266574 3414.88628837 3471.87221883
 3524.83045711 3573.76100322 3618.66385715 3659.53901891 3700.70922508
 3729.20626589 3757.99835112 3791.35362675 3781.93707322 3767.46089845
 3757.71045195 3750.95916647 3699.30733422 3683.71974733 3652.87225517
 3668.2488707  3645.74646463 3683.18264268 3722.67476841 3736.910716
 3779.19598049 3811.19320825 3845.47427604 3861.67754005 3839.84339971
 3842.19785687 3854.46054153 3891.60674033 3900.84221194 3892.20998977
 3864.53184342 3868.80671513 3886.81392592 3887.38345963 3875.60729476
 3842.96616524 3826.95360234 3804.9115894  3801.80184747 3785.15279722
 3815.96534114 3837.08669991 3882.14418804 3953.42774927 3985.71360088
 4047.70754133 4075.46542065 4101.86716564 4092.25611514 4064.22200291
 4060.73753943 4045.64123663 4056.14959103 4035.49750743 4006.17139188
 3948.43235086 3875.79525562 3805.51404817 3704.36930601 3654.28645333
 3612.48377648 3571.75950457 3554.2633823  3502.43529033 3396.70323002
 3326.73808696 3226.44691175 3130.04945621 3072.40500398 3002.10381969
 2932.14636113 2887.1558802  2847.62384125 2790.53838777 2733.7874136 ]",72.0,3456.357471104148,178497.02737399694,190131.10971451516
30,"[199.26968828 224.67719787 249.37340932 273.35832261 296.63193774
 319.19425472 341.04527354 362.18499421 382.61341673 402.33054109
 421.33636729 439.63089534 457.21412523 474.08605697 490.24669056
 505.69602598 520.43406326 534.46080238 547.77624334 560.38038615
 572.2732308  583.4547773  593.92502565 603.68397584 612.73162787
 621.06798175 628.69303747 635.60679504 641.80925446 647.93679772
 652.08027882 656.14884377 652.39136665 648.72871784 647.72625514
 641.58713381 638.90321667 637.03799496 636.33107741 636.56149139
 633.48122121 633.39934006 631.78042633 627.60935045 641.41853718
 637.34354046 640.95308459 640.88490876 645.99905888 646.8749386
 646.77837272 638.92260334 640.65832238 629.74235795 631.94069726
 628.76954408 623.68071452 618.85552919 618.01929824 616.7210965
 615.08260064 616.36434515 620.8241987  619.23302732 622.37825538
 623.86889124 628.03391296 632.96846994 637.67680031 654.29006763
 660.87939447 667.15508299 671.96579778 673.23289365 670.61754085
 671.54337063 676.70168793 678.76256224 675.69001308 670.68270145
 662.96805572 649.99545256 632.24438675 615.93906727 618.43308629
 612.16567583 609.7688852  600.04956356 596.40546569 592.09949432
 589.56457219 574.79430808 561.26965966 543.15315535 539.12173269
 529.87023312 522.94287112 518.75653486 519.51576961 525.77185243]",77.0,588.5781551371674,30286.148698127185,32017.895313825255
31,"[498.47215362 501.69030988 504.72236199 507.56830995 510.22815376
 512.70189342 514.98952893 517.09106029 519.00648749 520.73581055
 522.27902946 523.63614421 524.80715481 525.79206127 526.59086357
 527.20356172 527.63015572 527.87064557 527.92503127 527.79331282
 527.47549022 526.97156347 526.28153257 525.40539751 524.34315831
 523.09481495 521.66036745 520.03981579 518.23315998 515.97821958
 514.06153592 511.69656766 505.5060857  500.39723074 492.63472214
 480.48615292 478.39050186 475.444552   472.47704946 468.90514758
 458.88495379 453.26110269 456.02291829 456.05990185 451.09411183
 451.02639902 453.04520429 453.39821811 451.88039094 448.82189245
 452.55276847 452.99531913 450.19041586 447.87094853 446.91130599
 447.57533581 448.90675835 445.04539352 443.96184982 438.13389609
 434.10670893 432.77278509 428.58197354 432.41268667 433.16466655
 433.2156161  429.4024436  436.98092238 449.00453878 456.94690648
 462.4498751  465.53829874 464.78269825 463.29660632 460.44033161
 467.94692255 470.66892548 470.35024797 471.80938786 472.07385124
 469.64254415 462.37160993 450.39765133 448.22114007 443.67896035
 441.19510558 439.03888992 438.75660885 435.62044551 433.47381834
 431.61196463 431.8082944  423.34817751 416.38872375 411.19979109
 407.98026106 408.34556931 406.50073418 401.73188026 398.33487553]",18.0,472.9316247315631,22387.688974504563,22309.955576911598
32,"[ 73.97073326  92.89899797 111.34491668 129.30848939 146.78971611
 163.78859683 180.30513155 196.33932027 211.891163   226.96065973
 241.54781046 255.65261519 269.27507392 282.41518666 295.0729534
 307.24837415 318.94144889 330.15217764 340.88056039 351.12659714
 360.8902879  370.17163265 378.97063141 387.28728417 395.12159094
 402.47355171 409.34316648 415.73043525 421.63535802 427.70184194
 431.99816558 436.45605036 442.46485307 443.37429034 443.82266492
 446.93491852 448.45016025 450.27230445 450.47585736 451.06282285
 451.32098697 450.79585224 453.40441171 458.06972635 458.6668602
 456.76605637 453.41660695 451.48195158 450.26049484 450.64918681
 451.34602754 445.71263905 439.79944697 436.47547077 433.81125182
 430.3745849  425.92958577 423.79220498 418.99091527 414.39822973
 410.78086141 406.72433025 400.76601215 403.63965166 398.97029958
 405.84282377 407.4401481  410.00421468 418.39206279 430.06332095
 435.98296613 440.52388213 447.10401848 450.13845773 450.20737923
 448.81564058 450.92839695 448.86454723 449.43442237 445.78169745
 443.51186056 438.68911766 428.41702885 422.53596714 420.02383948
 421.31287825 420.80633111 423.84818921 427.37638731 425.39668516
 425.23205043 417.24404256 410.42348062 405.06767221 402.37728072
 400.26341493 404.65351286 405.57160224 404.00499612 404.29219936]",44.0,397.6154493429961,20842.507445003743,22324.55576547825
33,"[ 73.64393516  92.24289504 110.35333968 127.97526908 145.10868323
 161.75358214 177.90996581 193.57783423 208.75718741 223.44802534
 237.65034803 251.36415548 264.58944768 277.32622464 289.57448636
 301.33423283 312.60546406 323.38818005 333.68238079 343.48806629
 352.80523654 361.63389155 369.97403132 377.82565585 385.18876513
 392.06335916 398.44943796 404.34700151 409.75604981 415.25730078
 419.1086007  423.05210327 429.09498238 425.81774608 426.16906241
 424.72992562 422.62199152 426.81838754 428.37662455 425.0112551
 428.60664404 427.64287659 426.62279898 431.78729798 433.93352951
 432.86455949 434.35328962 434.052009   435.15383398 435.11152337
 432.2571689  427.51741797 423.25599675 420.05602072 420.28717096
 416.37966464 414.83556273 408.15123795 405.08910967 409.37637875
 406.12089125 400.55094392 400.11207479 397.56207133 396.11415166
 398.17250481 401.96784921 406.33105665 412.77803349 420.81997405
 427.24484953 429.51191017 432.54367594 433.4492546  433.96550056
 430.68130229 430.74476025 428.60451275 431.85325335 432.47519276
 430.62484204 422.83431471 412.03129322 402.92078277 402.47724787
 404.35998325 402.23358454 401.1046308  396.98422666 395.9622041
 393.58413414 385.4062872  380.10325859 374.60022623 367.57782015
 364.53828994 363.4788112  362.664606   364.83630516 364.45828611]",48.0,381.84079764252095,19905.75768059947,21466.661545067007
34,"[750.37017425 749.09304926 747.61379598 745.93241443 744.04890458
 741.96326646 739.67550005 737.18560536 734.49358239 731.59943113
 728.50315159 725.20474377 721.70420767 718.00154328 714.09675061
 709.98982965 705.68078041 701.16960289 696.45629709 691.540863
 686.42330063 681.10360998 675.58179104 669.85784382 663.93176832
 657.80356454 651.47323247 644.94077212 638.20618348 630.3881648
 624.13062136 616.78964788 597.84143187 574.49386698 555.44196315
 536.90868192 517.38041621 503.22053276 490.19562117 480.61918061
 465.78058151 454.75428376 446.37073441 442.37569157 437.13258203
 431.01696936 423.86268478 420.30079922 423.37209782 422.7218109
 421.18162238 420.56946122 416.66772306 415.88316364 414.83030589
 412.18641079 412.66328742 416.96005076 416.12125555 421.90143453
 425.5020798  425.19082558 426.65945189 426.33738373 425.62173224
 432.57703011 436.63579404 446.07254731 456.18886341 467.25077281
 473.03866933 474.21410714 474.39616825 475.36280481 473.56391069
 474.43432053 474.52053318 477.21041443 478.86544288 479.11637619
 477.16558454 474.24655644 464.78393596 457.90251706 455.22469536
 454.34977167 454.50984022 463.62674841 462.84830296 460.08486775
 454.62570158 452.86611829 448.32181428 442.23510582 438.91907827
 437.17035379 432.8896547  428.32061831 425.94066347 427.20673553]",0.0,546.434333591168,23480.55425861082,20886.224926450253
35,"[511.99660435 523.11023091 533.74809488 543.91019624 553.59653501
 562.80711118 571.54192475 579.80097573 587.5842641  594.89178988
 601.72355306 608.07955364 613.95979162 619.364267   624.29297979
 628.74592998 632.72311757 636.22454256 639.25020495 641.80010475
 643.87424194 645.47261654 646.59522854 647.24207794 647.41316475
 647.10848895 646.32805056 645.07184957 643.33988598 640.82274196
 638.44867101 635.28941963 626.77914373 612.22246927 597.74788407
 584.90254349 570.50530342 551.11605353 531.74772264 519.99781499
 508.39474208 505.37218288 505.50124152 505.88675582 501.04588999
 487.16524335 477.1333062  472.69788716 472.5492694  479.15394218
 482.33209448 491.25844039 489.08463434 484.52479325 477.99461049
 472.81327283 463.59114251 458.08578908 452.91335745 453.96331296
 455.68071465 454.2424942  455.65427939 460.32863548 452.52199199
 448.99453055 455.59461164 457.3088006  466.84151725 481.39174383
 492.28280318 493.36524252 495.9622349  499.18424035 496.22711522
 500.78945912 503.86641369 505.91360518 511.74910694 512.54799793
 509.72510563 502.10404219 494.67589966 488.80866423 492.04745599
 488.31677089 486.83577667 490.21057388 489.09865855 488.66522336
 491.35100754 486.40138282 477.92343534 469.16819387 466.4805
 459.69572594 460.7725728  457.13295933 454.53815876 450.71261615]",24.0,534.0431031606578,24791.957565699504,23797.573945369215
36,"[100.86670805 122.44564904 143.43590622 163.83747958 183.65036913
 202.87457486 221.51009677 239.55693487 257.01508915 273.88455962
 290.16534628 305.85744911 320.96086814 335.47560334 349.40165473
 362.73902231 375.48770607 387.64770602 399.21902215 410.20165446
 420.59560296 430.40086764 439.61744851 448.24534557 456.2845588
 463.73508823 470.59693383 476.87009562 482.5545736  488.2459502
 492.1574781  496.07590463 502.02323282 497.31460193 491.93950656
 491.9134164  489.87699254 489.14268473 489.95398411 487.10625382
 485.66177433 480.79212015 475.94392209 476.48876591 475.36545809
 469.7965275  469.41852992 466.7901691  467.16102884 467.86679382
 465.10188617 466.34037067 464.08985057 460.73825049 459.92982525
 457.76852466 452.26733358 447.33888062 451.52511614 449.84819092
 454.12398323 456.13896845 455.89864444 455.38946031 456.57968687
 456.38350462 461.15541189 468.37206325 478.64418571 496.57068821
 504.50850747 507.28907111 511.22229001 506.88878515 508.90524586
 509.48288843 513.71191647 514.13570882 516.44530894 517.76621458
 517.73872789 508.14096968 497.17078835 491.05599463 493.70093467
 490.48328864 491.79004077 496.59379365 494.66397429 489.82530715
 484.50910003 477.06809603 469.50902003 463.49794067 457.08581466
 452.20989687 448.80211732 449.82917412 451.73570769 455.26727927]",79.0,445.96744577430314,23405.15745394298,23090.2836029534
37,"[ 85.80619533 108.96130818 131.4533465  153.28231031 174.4481996
 194.95101437 214.79075462 233.96742034 252.48101155 270.33152824
 287.51897041 304.04333806 319.90463119 335.1028498  349.63799389
 363.51006346 376.71905851 389.26497904 401.14782505 412.36759654
 422.92429351 432.81791596 442.04846389 450.6159373  458.52033619
 465.76166056 472.33991041 478.25508574 483.50718656 488.62321871
 492.02216462 495.28504187 498.46484725 495.04764768 494.14291533
 489.65639694 484.28185112 481.11506498 477.92479053 467.81391112
 465.70719922 464.16705386 455.48210591 460.65453737 459.47940392
 462.41972764 464.71111573 461.15766046 462.48327479 464.88535789
 467.96259545 461.5166473  455.30164573 450.33742868 444.80928044
 436.43065784 428.49305352 428.97666295 426.25517994 426.56287431
 422.48573869 424.05898831 425.43989139 426.23388739 428.4811263
 431.72468871 439.22311122 445.81083987 456.44648388 466.74591606
 476.89359013 484.52667418 487.66531321 487.71067323 489.96325228
 495.00026959 498.08724705 504.99186581 507.03111679 501.19540944
 497.61026225 493.62525997 482.70838684 478.84745822 476.02265288
 476.67938588 474.04754612 476.52939045 480.28565604 482.60915224
 477.38507834 470.80220374 463.13075908 460.18396066 453.61605969
 449.73128524 447.61915021 441.75022258 445.49752599 439.39044526]",78.0,435.467027478429,22764.284084817267,23088.75615452527
38,"[371.70223998 393.46012868 414.45651912 434.69141129 454.1648052
 472.87670084 490.82709822 508.01599734 524.44339819 540.10930078
 555.0137051  569.15661116 582.53801896 595.15792849 607.01633976
 618.11325277 628.44866751 638.02258399 646.8350022  654.88592215
 662.17534384 668.70326726 674.46969242 679.47461932 683.71804795
 687.19997832 689.92041042 691.87934426 693.07677984 693.51366647
 693.1871562  692.10009698 684.06632958 661.79889581 649.85196655
 638.19155536 625.65135308 616.26547707 603.07919672 594.98946531
 578.94137254 574.22774808 566.43324686 564.65454036 556.96082246
 555.2302129  555.0701709  552.3920811  550.62799504 547.6053842
 541.16451589 532.94615237 529.65158633 523.7731314  519.74849871
 514.18036743 516.50661313 519.52236336 514.74033683 511.77317759
 507.73852976 503.87804002 512.17962466 512.89552056 520.94862226
 520.04999744 524.96739587 535.56258592 546.15648303 562.14146116
 573.26424875 581.62028434 587.57918985 595.9187772  598.94704818
 599.88174523 601.5414323  598.69706118 594.16796201 592.40044836
 585.62758164 582.29514268 568.49853451 560.64153948 558.49984134
 555.21567348 550.94604095 549.43474867 549.33430041 549.77399903
 546.29544681 539.84372701 527.6977935  523.45506292 512.38507933
 515.58663942 515.27408257 512.05501295 505.03069118 501.61904432]",29.0,571.8904162824027,27794.510678916766,26945.44481006111
39,"[137.45198831 163.50043374 188.83201504 213.44673221 237.34458526
 260.52557418 282.98969897 304.73695963 325.76735617 346.08088859
 365.67755687 384.55736103 402.72030107 420.16637697 436.89558875
 452.9079364  468.20341993 482.78203933 496.6437946  509.78868575
 522.21671277 533.92787566 544.92217443 555.19960907 564.76017958
 573.60388597 581.73072823 589.14070636 595.83382037 602.50669698
 607.069456   611.61197763 616.70159788 616.48690911 617.83022234
 613.17438041 605.78621474 600.97981085 597.21223148 595.0523127
 587.72151513 581.11494478 575.63196793 577.01536896 581.6808098
 579.47540703 579.29608313 576.24167218 574.67831816 574.93944993
 573.9541369  570.05062848 571.16628635 561.24204332 551.84875926
 550.59526577 553.33903327 543.27012714 535.20099609 536.04485392
 534.99802963 529.54589264 524.7912491  516.03198511 523.83426515
 530.99449309 536.27043979 545.46643039 555.69164677 564.59983326
 571.5994794  579.11503975 579.6160562  582.33812947 585.14411453
 573.38751909 567.24298599 565.92056737 568.31258955 567.61524299
 562.48583693 552.8154116  541.96078174 533.32676757 528.85054175
 530.26534974 530.21943049 529.15666094 533.0959442  535.37790995
 534.92675729 526.45980818 519.26522482 514.43106817 507.22500202
 496.85377123 490.02359796 481.29668934 478.71375361 476.1187414 ]",34.0,525.0025900552067,26891.708248795043,28434.86994584435
40,"[141.0780923  167.33411765 192.87553239 217.70233653 241.81453007
 265.21211302 287.89508536 309.8634471  331.11719824 351.65633878
 371.48086873 390.59078807 408.98609681 426.66679495 443.63288249
 459.88435943 475.42122578 490.24348152 504.35112666 517.7441612
 530.42258514 542.38639848 553.63560123 564.17019337 573.99017491
 583.09554585 591.48630619 599.16245593 606.12399508 613.10154363
 617.90324156 622.7209489  630.73924036 629.08950044 627.68003254
 622.0105686  616.25701511 606.58422232 605.35104191 599.97151462
 595.07159282 590.86947831 583.86158145 584.21066297 585.03956075
 582.83096394 579.13560494 580.08859525 580.87407717 587.667141
 587.00301732 583.68870396 582.35772792 577.63775366 571.14962164
 572.36457545 568.25866238 562.53938251 560.97116906 563.12474954
 565.2626377  567.96349812 564.00526654 564.99608283 578.29590814
 579.16355945 584.78773251 593.11954334 605.08915046 614.12005611
 621.70366734 630.79259047 632.4541713  637.88330572 639.18045253
 641.39603399 639.80007115 637.53049267 637.71736622 636.89028032
 630.67922536 616.80030049 598.6244135  591.2716431  584.41239605
 579.75466845 577.89135585 577.97009521 578.58446975 576.96415395
 577.93784629 572.4643511  554.86738354 543.67673437 539.58141335
 526.80342257 518.47001094 518.119583   518.86034431 516.76654883]",75.0,551.2551976159019,28635.30946266309,29072.920387395046
41,"[111.71779617 146.07803612 179.44217332 211.81020775 243.18213943
 273.55796835 302.93769451 331.32131791 358.70883856 385.10025645
 410.49557157 434.89478394 458.29789355 480.70490041 502.1158045
 522.53060584 541.94930441 560.37190023 577.79839329 594.2287836
 609.66307114 624.10125592 637.54333795 649.98931722 661.43919373
 671.89296748 681.35063848 689.81220671 697.27767219 704.48566677
 709.22029486 713.69745207 715.31848212 707.5215558  702.10678862
 697.6536247  691.68579192 683.0027734  679.50698433 670.96637559
 661.71490131 655.13770724 655.13934006 660.14221244 661.23518886
 659.46274711 659.72143142 659.76858089 654.31702525 648.38251994
 640.5367069  628.20087764 619.52584207 610.3685492  598.41733439
 586.07611019 580.85801916 580.52309531 576.32368953 567.34067874
 562.87644767 566.28459146 561.50025124 566.53020267 572.8345207
 575.21109082 579.17077661 587.71591335 595.7923801  606.25821627
 615.40808999 619.88772677 619.41222902 619.15357986 615.73726831
 617.0057134  619.36440764 627.88363368 626.73836259 620.44673713
 610.47439777 600.50592125 586.03573117 571.39577293 560.58987136
 551.99264268 544.95473092 540.00598636 538.95033758 538.23705767
 531.25583214 524.04983638 515.70060516 508.00875375 502.62462573
 499.52180211 500.76556938 491.00325193 487.84601262 484.51375318]",32.0,578.2684879944616,28982.887378389525,31898.78941096198
42,"[264.85802904 296.26648246 326.67076469 356.07087573 384.46681558
 411.85858424 438.24618171 463.62960799 488.00886308 511.38394698
 533.75485969 555.1216012  575.48417153 594.84257067 613.19679862
 630.54685538 646.89274095 662.23445533 676.57199852 689.90537051
 702.23457132 713.55960094 723.88045937 733.19714661 741.50966266
 748.81800751 755.12218118 760.42218366 764.71801495 768.35052677
 770.29716395 771.58048167 768.88959487 755.3464335  744.17093589
 736.94386897 727.67710007 721.18812163 706.81494484 696.43107492
 683.69432774 671.81643449 662.01543059 651.21968439 643.04231614
 635.5553497  625.61229353 614.40070129 612.4158966  601.23336271
 589.82153651 573.20396045 568.89984635 558.2961512  557.16943275
 555.57028847 547.22776886 538.41165536 530.2663192  521.18037874
 521.46042196 517.16151225 522.40125292 519.59304404 519.81015481
 530.07601766 545.68679554 556.65569899 572.50255891 593.68765685
 601.43005995 611.69862753 623.43720643 629.92422652 631.31070053
 627.7540114  635.97832411 634.6238353  636.94076829 638.72340051
 634.75832246 621.53371409 612.69726244 605.58996218 604.31148084
 600.23496835 604.36843564 606.94459924 604.33962903 607.6564679
 612.60163202 609.9770868  607.47787523 602.7173735  595.33236011
 596.66977576 597.02063581 596.52059155 591.96490606 592.76500081]",31.0,614.8158840189652,30322.330402316195,29428.198904776356
43,"[311.90874621 332.12617358 351.67996874 370.57013169 388.79666242
 406.35956094 423.25882725 439.49446134 455.06646322 469.97483289
 484.21957035 497.80067559 510.71814861 522.97198943 534.56219803
 545.48877441 555.75171859 565.35103055 574.28671029 582.55875782
 590.16717314 597.11195625 603.39310714 609.01062582 613.96451229
 618.25476654 621.88138858 624.84437841 627.14373602 628.93726546
 629.75155461 630.06001558 625.73270818 614.31869926 601.2806929
 587.24382585 576.65777808 569.56515917 560.12426178 553.2854076
 550.06535266 547.79606263 540.31870965 539.22718649 541.65020086
 536.65782423 532.94538663 532.66515628 531.18093253 531.3892276
 527.46400004 529.2576718  527.32398549 523.81165127 519.94893323
 514.41977963 507.92801631 504.76888262 500.63239951 500.52290729
 498.82847556 495.12498643 492.23206446 492.6498679  487.49378932
 497.97477407 505.98796452 504.97350708 513.65156474 519.42201435
 531.42497573 536.04474229 541.49895983 546.81907354 548.16583802
 548.12541982 543.27184656 546.30494024 549.11216444 547.28036629
 540.39713033 530.79370437 516.67783888 505.84804909 497.17010439
 493.941364   487.94960059 483.28315836 483.12375989 476.04987715
 470.24981964 461.1431933  449.83026391 443.2931414  438.37013204
 432.41910364 429.23465864 423.30656923 427.04017152 420.93190382]",31.0,522.2379549330059,25399.246707777642,26205.636077061055
44,"[138.47198408 166.26713388 193.20697283 219.29150091 244.52071814
 268.8946245  292.41322001 315.07650465 336.88447844 357.83714136
 377.93449343 397.17653463 415.56326498 433.09468446 449.77079309
 465.59159085 480.55707776 494.6672538  507.92211899 520.32167331
 531.86591677 542.55484938 552.38847112 561.36678201 569.48978203
 576.75747119 583.1698495  588.72691694 593.42867353 597.69578592
 600.26625411 602.40207812 598.73161946 590.67966703 584.04621039
 577.92149899 568.70465    561.75388433 558.1794649  548.86912498
 540.49055314 529.24272552 524.61370974 532.01701302 528.16982236
 522.42606829 516.08534225 509.06234512 502.92779042 494.72852751
 487.08103802 479.53895787 469.77263438 462.74437797 456.26664861
 447.13692503 440.98742667 435.34897234 429.17722872 425.0794466
 424.42360329 423.77975696 426.82903091 423.04526718 418.89754731
 423.5746577  425.90375725 438.349522   444.75712125 457.00072572
 470.0174535  475.99307033 481.6417782  489.63008741 483.48189069
 479.10160898 483.53902374 480.67037402 479.80753343 478.37424145
 473.06601851 465.8011676  455.79900472 449.08604013 446.47278166
 444.66726795 441.87845157 440.32773251 442.59483956 442.29130422
 442.14643218 439.8429737  435.65924885 427.9822068  426.58805345
 430.35012284 430.13416697 424.66033587 423.44900049 422.39708217]",31.0,471.0630977785424,23200.339214974352,24297.874874438843
45,"[168.99532281 182.1205845  194.93651813 207.44312369 219.64040118
 231.5283506  243.10697196 254.37626524 265.33623046 275.98686762
 286.3281767  296.36015772 306.08281067 315.49613555 324.60013237
 333.39480112 341.8801418  350.05615441 357.92283896 365.48019543
 372.72822384 379.66692419 386.29629646 392.61634067 398.62705681
 404.32844488 409.72050489 414.80323683 419.5766407  424.57697635
 428.19546423 432.0408839  436.17299213 436.56866354 434.37354581
 434.82085164 435.20261179 435.98204029 440.16221207 440.48586855
 434.41990062 434.77135253 436.25156734 438.12223131 446.02349427
 448.30506437 451.47946708 454.90116984 459.17692472 465.4575403
 464.19554239 464.51066636 457.88611593 455.31529052 456.99964983
 453.75565414 455.44223977 457.39914049 462.646349   465.25125667
 468.58369795 471.68695758 477.65772449 487.01571953 498.29404508
 509.13586351 519.93500635 524.2865264  536.80537145 557.26810739
 567.51703526 572.82485916 581.77711667 586.79065082 590.28924191
 595.37591774 598.76489952 597.10194704 596.43526407 594.16072987
 596.34702626 588.12990284 581.71716842 571.6900652  564.53544715
 561.87029882 558.87190349 563.00283844 560.01868762 564.57100782
 572.1212833  567.72820588 565.82954868 559.81614879 556.87674276
 548.4900358  549.95032381 545.64246887 540.26646936 541.28368193]",76.0,464.38600113986223,25288.592008629214,23008.59829706764
46,"[274.91337086 281.35129339 287.63312892 293.75887745 299.72853898
 305.54211351 311.19960105 316.70100158 322.04631511 327.23554165
 332.26868118 337.14573372 341.86669926 346.43157779 350.84036933
 355.09307387 359.18969141 363.13022195 366.91466549 370.54302203
 374.01529158 377.33147412 380.49156966 383.49557821 386.34349975
 389.0353343  391.57108184 393.95074239 396.17431594 398.48926344
 400.15320204 401.90851459 401.86804339 396.70923134 396.12350543
 398.12050341 396.55513534 399.34854225 397.78482411 399.20654892
 398.66230458 400.07983776 401.8366065  406.23816225 408.74866212
 408.6203551  407.92500108 409.8601401  411.93043931 415.90715246
 418.07134712 421.2541516  420.33076949 415.51225825 413.35728075
 413.64940645 416.46449223 418.72955464 415.96273365 413.3330785
 421.0146769  426.50683936 433.3468494  441.81124455 444.77575506
 447.4804792  449.75928108 462.34682    475.77660995 487.5637194
 498.86604585 505.49999115 506.92001685 509.17889915 507.34038453
 512.50062948 516.80143664 520.87811615 517.68365773 514.87844172
 511.05601726 503.92339044 499.15717873 494.93164653 495.04476515
 492.46086574 497.87427369 500.34827119 503.07529025 504.07146798
 502.51858359 502.20986856 498.75819213 495.77337098 495.32223597
 495.93822067 495.73762354 496.76992042 497.95481914 495.43561138]",77.0,427.2138830223333,22703.56695020868,20641.50891337494
47,"[419.09267267 427.03374019 434.65268342 441.94950236 448.92419701
 455.57676738 461.90721345 467.91553524 473.60173274 478.96580595
 484.00775488 488.72757951 493.12527986 497.20085592 500.95430769
 504.38563518 507.49483837 510.28191728 512.7468719  514.88970223
 516.71040827 518.20899003 519.38544749 520.23978067 520.77198956
 520.98207416 520.87003448 520.4358705  519.67958224 518.44371876
 517.20063285 515.47797173 506.63438987 494.23542738 483.81671723
 471.05412475 461.98790778 452.10902139 445.90870666 435.3837473
 431.24519606 421.96374527 418.55416803 416.3923259  414.4440034
 409.93455088 409.47268946 406.33935336 411.60055363 418.55523163
 424.03023926 425.67079994 425.75730441 429.32360883 429.12006241
 431.93237737 432.57943817 438.13662854 439.0255072  441.06017633
 445.98254311 451.72392663 456.76044962 463.48418622 470.30635874
 476.90931276 481.63974655 490.36214516 502.98154284 516.58445507
 522.75669146 529.31474906 535.05668688 536.29184259 543.2590578
 550.82266355 550.59580082 556.83601643 560.22557319 558.72255719
 556.29985801 551.99535687 540.34650431 536.00850352 534.86732729
 537.59695064 540.04076406 539.771382   542.06501957 542.82666036
 539.98280266 533.07570452 521.46000848 513.79780668 514.47353263
 511.94477863 510.59090048 504.66167381 508.7727632  502.77427376]",78.0,489.6882746618258,24645.68806392881,20855.35915645164
48,"[ 98.32582684 109.73527603 120.93144019 131.91431934 142.68391347
 153.24022259 163.58324668 173.71298576 183.62943982 193.33260887
 202.8224929  212.09909191 221.1624059  230.01243487 238.64917883
 247.07263777 255.28281169 263.2797006  271.06330449 278.63362336
 285.99065721 293.13440604 300.06486986 306.78204866 313.28594245
 319.57655121 325.65387496 331.51791369 337.16866741 343.27082309
 347.83031978 352.84121844 360.78205093 363.37188907 366.46992498
 366.64996139 366.86119152 367.64028315 372.255772   375.64486412
 379.5910771  380.23804021 384.99198181 395.60428587 401.95420129
 403.11281605 410.4842279  417.22846291 424.96758371 427.94633188
 433.58717137 439.13756665 442.33789519 447.26718904 452.48934355
 449.51659291 452.53484349 444.99817221 446.93924435 449.7727107
 448.35940808 452.11350872 456.37968057 461.4587962  462.97353071
 469.36759321 478.69177364 490.99837946 503.1526546  517.06111395
 528.84082681 537.18581271 544.64815061 545.60433457 544.00575291
 544.73662938 545.48077318 547.43160041 545.91828575 545.2952922
 542.46593358 528.37886057 522.25232358 517.21719549 515.19745297
 515.68569563 517.64980899 520.52654704 521.98894052 517.1708239
 516.1641715  508.27295683 503.10208874 497.82945205 491.00951521
 490.95381411 484.5231177  478.23698831 478.66731322 479.34572583]",77.0,413.62594605046553,22868.185830463717,21324.36441538918
49,"[195.62566917 211.39797142 226.77673443 241.76195821 256.35364275
 270.55178805 284.35639412 297.76746095 310.78498854 323.40897689
 335.63942601 347.47633589 358.91970654 369.96953795 380.62583012
 390.88858305 400.75779675 410.23347121 419.31560644 428.00420242
 436.29925917 444.20077669 451.70875496 458.823194   465.54409381
 471.87145437 477.8052757  483.34555779 488.49230065 493.81198399
 497.60516865 501.5712938  505.33177514 501.40328434 500.82539115
 502.20773944 494.93457791 492.27226941 494.34125501 491.58856489
 484.31535768 484.25298597 481.69850139 485.11944135 490.45906623
 486.71900847 486.03044912 496.83028116 502.94404364 507.92699703
 509.85834634 514.59939036 513.78329733 518.66170479 525.36547264
 530.15104178 533.91350968 538.53134528 542.66535688 543.23011452
 544.03830481 546.04304333 547.16921179 552.70490428 555.81115784
 567.6134956  571.30822352 583.09220214 593.93709113 606.87983002
 619.16601408 619.6177284  619.61443972 620.34077871 622.69870434
 632.57436431 635.63785533 638.1669775  635.90445155 635.21229227
 633.55589325 626.55166777 618.73916533 611.83428199 607.08546832
 603.96520128 597.22075826 596.63329497 588.38358207 584.55014903
 581.39088939 575.26746186 565.69752594 556.59116179 556.46711151
 555.88671542 544.99131789 544.08774386 537.09611665 536.50769182]",77.0,509.65980194095135,27333.97960456214,25190.670085666672
50,"[111.30470574 122.69554139 133.81257792 144.65581533 155.22525362
 165.52089279 175.54273283 185.29077376 194.76501557 203.96545825
 212.89210182 221.54494626 229.92399159 238.02923779 245.86068487
 253.41833284 260.70218168 267.7122314  274.448482   280.91093348
 287.09958584 293.01443908 298.6554932  304.02274819 309.11620407
 313.93586083 318.48171846 322.75377698 326.75203637 330.92280268
 333.9271578  337.10401984 342.02557845 343.42278079 341.86699686
 338.55863873 342.16183258 341.76002488 345.06302665 346.8257827
 343.9944397  343.33024413 345.62972178 346.78305359 351.31294654
 352.50099313 352.978259   357.83170914 360.1458254  363.27692534
 368.99546644 372.18390667 370.7458931  371.35731016 374.42941137
 376.02930022 375.17819055 378.32807205 379.56981936 380.07139217
 380.21953735 382.11245554 384.30681489 388.93076757 385.7388796
 389.52184592 400.73470254 406.60512517 414.06425306 422.60814514
 433.58458413 439.67869387 445.71331105 454.00318242 453.20541541
 455.15880201 455.31119166 454.38590569 454.90748334 453.0317485
 452.70337753 446.15183567 440.14788927 431.92447474 429.25684131
 425.3067802  419.88253609 419.00080341 420.38411099 419.62322198
 416.95045847 412.73511806 405.35329782 396.32425633 391.07769692
 386.64950989 385.1221508  382.62782134 376.14611152 373.60186924]",76.0,355.6136486802008,19248.76540081986,18125.171331681282
51,"[248.87404703 263.25091906 277.15577076 290.58860212 303.54941315
 316.03820385 328.05497421 339.59972424 350.67245394 361.2731633
 371.40185232 381.05852102 390.24316938 398.9557974  407.19640509
 414.96499245 422.26155948 429.08610617 435.43863252 441.31913854
 446.72762423 451.66408959 456.12853461 460.12095929 463.64136365
 466.68974767 469.26611135 471.3704547  473.00277772 474.27492931
 474.85136275 475.06762477 473.69881004 469.49533968 462.74308626
 459.17382431 448.79344786 436.59434967 429.21809538 420.05144103
 417.22566848 413.64212621 412.56891284 402.43853357 397.78287174
 392.70757224 384.13104111 380.90270624 382.58139236 385.32178438
 384.65201652 379.72648303 375.33920163 370.56303605 366.1917992
 359.13225468 353.7926176  350.84357783 351.59140238 349.50271325
 347.53107857 346.78630918 345.93054451 346.0644047  343.34831959
 343.10752073 342.43886168 347.50129036 352.77515687 359.2260418
 362.51515481 363.10333967 365.50357595 367.23077901 368.22452953
 368.82303685 368.13256461 368.65647001 368.72216297 363.57615627
 361.52920807 351.06446074 337.72608442 329.18793579 328.48802373
 330.74393754 332.03033418 332.32909129 334.57052328 332.61707016
 330.20538534 327.89980818 323.2397617  320.40069431 320.08112525
 314.34432477 311.26406035 308.53155923 308.85171398 312.92741505]",31.0,380.3114505013946,18013.494393360503,19056.68413044441
52,"[155.74074551 167.93891853 179.77660676 191.2538102  202.37052885
 213.12676272 223.52251179 233.55777608 243.23255557 252.54685028
 261.5006602  270.09398533 278.32682568 286.19918123 293.71105199
 300.86243797 307.65333916 314.08375556 320.15368716 325.86313399
 331.21209602 336.20057326 340.82856571 345.09607338 349.00309626
 352.54963434 355.73568764 358.56125615 361.02633987 363.36866708
 364.87505295 366.2586823  366.79740899 368.24557544 367.21887129
 366.38017262 362.47687015 362.20973086 360.40072636 353.78669614
 351.68049117 346.64087597 340.95989563 336.36739704 333.41115898
 331.54593655 328.67012728 332.14038945 332.38903172 331.26206185
 332.24466034 328.78395203 327.53291509 324.34630216 320.1910086
 314.23855321 308.71243232 309.92796461 309.60767605 306.8366559
 307.94297203 304.79172606 306.16474408 310.79183784 312.4414584
 318.69247693 321.47789405 330.95197283 337.92196196 346.38320166
 351.37993228 357.57462746 363.30563643 363.08741901 364.40441413
 365.59561237 366.86653663 367.10391676 369.73113853 371.64062997
 374.19907269 371.60107494 364.01874765 357.95118027 356.01770341
 357.50584645 358.20731868 359.98409053 364.70995697 364.99987548
 363.75439353 361.35458455 355.46672466 354.28145191 354.03088112
 351.9702914  349.22194939 345.80026741 345.73246959 344.52312324]",80.0,330.4258492835081,17053.788149069984,16422.03702399761
53,"[311.82021396 327.989004   343.55999534 358.53318799 372.90858194
 386.68617719 399.86597374 412.4479716  424.43217076 435.81857122
 446.60717298 456.79797605 466.39098042 475.38618609 483.78359306
 491.58320134 498.78501092 505.3890218  511.39523398 516.80364747
 521.61426226 525.82707835 529.44209574 532.45931444 534.87873443
 536.70035573 537.92417834 538.55020224 538.57842745 537.89562456
 536.84148178 535.07631089 527.15924178 509.97413695 493.90617129
 485.14548739 474.42381423 466.20496429 459.12853784 450.00720466
 437.65438233 428.80361384 420.65806422 412.38621848 404.60380881
 399.50662976 395.47841837 390.6855517  387.31071191 385.63951745
 386.08984167 386.14276729 388.25727259 385.36986618 379.11556184
 370.62070986 367.00649015 367.45370945 361.65041808 364.5873841
 360.11906577 360.03406225 362.19898283 364.35921212 369.62896522
 365.45577942 366.13067602 370.86478179 379.32048144 387.56773959
 394.15986615 401.53275405 404.10662016 408.11506431 408.60520363
 411.23386313 414.96217949 416.19157433 413.22242766 414.0753073
 408.73868067 407.90733236 398.9176276  392.81741449 393.33447945
 393.92282214 397.1046111  399.69823061 399.8925938  399.66078379
 398.17627245 392.48772765 384.43946128 377.85546969 370.3702735
 371.90856953 373.33164792 369.05183162 363.43307938 365.50892678]",28.0,426.63292779298024,20096.556333354827,19100.414219470556
54,"[ 82.3111883   97.85461383 113.00032496 127.74832169 142.09860402
 156.05117196 169.6060255  182.76316464 195.52258938 207.88429972
 219.84829566 231.41457721 242.58314436 253.35399711 263.72713546
 273.70255941 283.28026896 292.46026412 301.24254488 309.62711124
 317.6139632  325.20310076 332.39452393 339.1882327  345.58422706
 351.58250703 357.18307261 362.38592378 367.19106055 372.12144643
 375.60819091 379.22018449 383.76225216 384.28004588 383.98674338
 385.89646458 384.15638269 382.7776962  385.0257411  383.42779489
 381.2347257  378.73550173 374.47291137 373.92732463 375.695888
 374.0410257  375.51262265 376.89464491 377.18488582 380.34281466
 380.53974793 383.20153837 379.96249198 378.93393622 372.76669617
 372.97023055 375.17566709 375.93502157 381.63841498 382.91961289
 378.22290446 378.23854269 379.93428615 380.51770487 383.33550931
 384.38767774 386.51167667 392.62325314 401.23902535 410.21377725
 416.07221457 420.59229539 424.03228607 419.74794016 420.06326927
 425.74939683 423.00137192 422.07255587 418.87329155 414.58950598
 414.06373153 405.94328969 398.43879272 392.67891233 382.85030763
 378.56952071 376.24945715 378.49751374 378.70524672 379.90150083
 376.42743347 369.71434594 364.2652686  358.29252214 353.70109532
 351.7539048  347.36355046 342.62757077 338.97488808 338.26937769]",75.0,353.8146965078492,18646.9601319838,18831.892657522552
55,"[ 63.32270264  82.47652068 101.09443993 119.1764604  136.72258208
 153.73280497 170.20712907 186.14555438 201.5480809  216.41470863
 230.74543758 244.54026774 257.7991991  270.52223168 282.70936548
 294.36060048 305.47593669 316.05537412 326.09891275 335.6065526
 344.57829366 353.01413593 360.91407941 368.27812411 375.10627001
 381.39851713 387.15486546 392.375315   397.05986575 401.68941882
 404.82127088 407.89812527 412.2713815  411.64842975 406.3863279
 404.13090213 400.90061619 398.41638963 393.95054145 390.7105281
 385.7251994  381.75917986 377.46020535 375.47264952 377.3483246
 374.62712974 373.59520039 376.32298665 375.07145916 375.99893949
 373.33366946 376.32924164 373.43107905 370.98627524 369.47722141
 368.6118838  368.36172902 369.46749485 367.58179561 370.04031209
 371.66046211 371.18411657 377.93999857 386.72066432 386.89775817
 385.91318322 388.4147326  391.00423474 396.45865318 404.63850246
 409.01532698 409.51084464 411.50568009 416.61835471 418.92391156
 425.56786066 431.51586353 436.9479449  434.15447963 435.00021729
 434.29465505 428.93729448 419.83335756 415.01221095 411.52538405
 408.56648747 409.79337716 409.06750244 404.17311349 402.19431827
 396.84459897 389.87039301 380.13026663 371.82252307 373.44219112
 367.39105558 363.84937947 362.10696783 362.21410974 362.50007002]",77.0,364.6088343216471,19184.365905153154,18545.315753852243
56,"[ 52.14646555  72.79642197  92.88729419 112.41908222 131.39178605
 149.80540568 167.65994112 184.95539236 201.69175941 217.86904226
 233.48724091 248.54635537 263.04638563 276.98733169 290.36919356
 303.19197124 315.45566471 327.16027399 338.30579908 348.89223996
 358.91959666 368.38786915 377.29705745 385.64716156 393.43818146
 400.67011718 407.34296869 413.45673601 419.01141913 424.59215732
 428.44353279 432.32096333 438.02612769 435.56760239 432.73366258
 430.12335729 433.24806086 432.94440813 431.9937926  426.53598219
 427.6434334  421.0321746  422.29654311 416.98426452 417.14878382
 417.87194211 420.22139905 421.447223   421.99474788 423.12507335
 425.74370722 425.33482263 420.0215005  415.36071894 408.05068085
 404.22829422 402.64842833 402.48121757 400.20796778 399.38910143
 399.90189204 399.10423983 399.26947622 400.10881191 406.80577002
 407.40700794 409.36710758 411.97576927 417.77248632 428.19503598
 436.28464815 436.51748414 435.82094231 436.27250068 444.41649375
 442.67346209 445.84199035 451.62063298 452.1595699  449.65295238
 445.54695645 440.59552617 434.68232924 425.05459415 421.80637662
 414.92863961 412.51306061 418.33477709 417.83783665 418.20387092
 413.17605647 406.56668382 400.88683528 397.43848354 389.1704976
 382.08027117 381.29183456 378.03340832 379.58874744 374.49562233]",78.0,386.6591837788186,20295.852457095614,21010.15697761618
57,"[150.96485431 183.18757792 214.52881791 244.98857429 274.56684704
 303.26363618 331.0789417  358.0127636  384.06510188 409.23595654
 433.52532759 456.93321501 479.45961882 501.10453901 521.86797558
 541.74992853 560.75039786 578.86938358 596.10688567 612.46290415
 627.93743901 642.53049025 656.24205787 669.07214187 681.02074226
 692.08785902 702.27349217 711.5776417  720.00030761 728.42215837
 734.20118857 739.97940362 747.67411732 747.50389348 735.28937971
 738.41024441 733.51292712 737.96430885 730.43282009 729.62236143
 725.95829469 728.99773688 719.83373916 721.57354007 723.26632901
 727.40397274 715.29055351 720.96864328 718.31003172 714.16874486
 704.88375132 701.62115576 694.60331613 687.49970465 692.89441313
 689.1415986  680.45534966 675.35502866 676.43559421 671.57318441
 668.93105024 667.25217033 667.84605248 655.46380614 642.41251465
 642.10143754 655.84123186 665.32784786 667.19123791 680.62842149
 683.73846002 701.40729332 716.19145957 737.71692414 730.96127141
 732.8071586  731.80954268 736.37982865 734.76280386 731.10318118
 732.75454769 719.27171233 710.04858544 694.55424154 694.16595696
 697.87094299 697.84221226 699.78470377 700.01584542 700.62877805
 699.20954409 706.07928826 686.65458102 675.91950613 673.78425297
 668.9984928  676.09825468 676.26788935 672.46158316 672.81559607]",32.0,655.5473457428744,34158.82731318067,35119.228032146275
58,"[ 93.19170813 120.76436893 147.53076273 173.49088955 198.64474937
 222.9923422  246.53366803 269.26872687 291.19751873 312.32004358
 332.63630145 352.14629232 370.8500162  388.74747309 405.83866299
 422.12358589 437.6022418  452.27463072 466.14075264 479.20060758
 491.45419552 502.90151646 513.54257042 523.37735738 532.40587735
 540.62813033 548.04411631 554.6538353  560.4572873  566.02242979
 569.64539032 573.03004135 575.90650932 570.15956161 566.22589488
 559.96820945 550.8536004  546.12907328 535.13363422 525.91689339
 515.6735074  510.51470413 506.22948595 506.22334881 506.65670213
 501.70839605 501.09470081 499.30718266 495.59920041 495.21588278
 493.95986536 493.83322726 495.95108386 490.83238912 482.94436149
 478.70991361 474.58794692 473.13214171 474.2261149  474.98522418
 477.45909837 479.31332596 474.85745502 479.54881049 480.5420285
 479.14016264 482.73385078 486.60525249 491.52268812 497.58632695
 498.71061403 501.04881716 498.06817847 498.8792771  504.60971972
 506.80006611 505.58679175 505.15680148 506.60940585 506.66576505
 502.21762906 489.39370882 476.48712603 465.56919172 455.96891364
 452.55357739 448.79578255 445.17381753 440.51950714 431.38563708
 427.3849479  418.23417933 407.45873033 400.1167704  389.32011901
 385.10969691 382.27746407 374.23238629 369.33267952 365.61122689]",32.0,464.2864457814674,23278.49080255494,24481.78576205748
59,"[ 62.75446715  94.35784769 125.05433676 154.84393434 183.72664044
 211.70245507 238.77137821 264.93340988 290.18855007 314.53679878
 337.978156   360.51262176 382.14019603 402.86087882 422.67467013
 441.58156997 459.58157832 476.6746952  492.8609206  508.14025451
 522.51269695 535.97824791 548.53690739 560.1886754  570.93355192
 580.77153696 589.70263053 597.72683262 604.84414322 611.76709893
 616.35809    620.75472617 624.31349017 618.00982975 614.77159308
 612.49417422 605.92544955 599.27365988 593.98968404 587.22433251
 580.14332581 575.96495927 567.56271585 572.86267637 567.85220971
 567.67126895 562.36884007 560.1387039  557.43637584 554.37382862
 544.56939856 539.5200194  533.08870034 528.20101901 522.78247662
 516.6133475  512.70991893 507.69628956 499.92280118 494.59394515
 490.37696176 483.33051461 489.35967833 485.99412249 481.24969758
 479.63194142 479.21289467 482.4552025  487.24494533 497.03843358
 502.01572668 504.11952352 504.41284439 508.96367277 506.40501976
 498.02594211 500.11545357 503.38698818 503.54869571 503.06141667
 496.45535002 485.19020866 473.28370513 462.23085148 453.34448265
 445.91177689 440.02707346 434.03969299 431.36931255 433.30887336
 428.77126207 421.84008064 412.58506878 403.6976085  400.40144977
 398.64072112 394.8295104  393.86953206 393.79150079 388.89371816]",32.0,488.1169921223505,24142.68376803522,27196.393765254543
60,"[ 451.44023734  473.54367509  495.25121997  516.56287195  537.47863106
  557.99849728  578.12247062  597.85055108  617.18273866  636.11903335
  654.65943516  672.80394409  690.55256013  707.9052833   724.86211358
  741.42305098  757.58809549  773.35724712  788.73050587  803.70787174
  818.28934473  832.47492483  846.26461205  859.65840639  872.65630784
  885.25831641  897.4644321   909.27465491  920.68898483  933.05689029
  942.32996603  952.55661731  951.01037649  956.02262026  941.59558588
  956.36367032  967.5159681   976.89866568  991.13666759 1003.03558674
 1012.23627685 1035.85957558 1061.32418518 1078.84674926 1083.97221692
 1085.4522254  1107.65880265 1126.34594955 1137.89965102 1157.23459186
 1172.35984099 1180.38169733 1174.211639   1168.44790858 1176.88528773
 1177.97290389 1193.89595102 1198.25366626 1197.44622734 1193.18508849
 1189.48803862 1199.87164908 1208.5503412  1218.81534289 1217.75979317
 1226.19749165 1231.00964494 1240.31469424 1257.22661952 1283.82220089
 1302.80436321 1305.95177043 1300.06400872 1295.58341937 1277.58669649
 1265.8074661  1259.49494742 1260.41567842 1249.66648546 1232.12167736
 1205.18583278 1191.45593945 1196.16311994 1203.2809947  1195.13947346
 1196.54407142 1186.09766493 1181.51557783 1182.27261495 1187.99921302
 1174.47215886 1167.09413721 1155.92913047 1134.16451095 1117.07581324
 1111.30748222 1133.06686275 1139.98818322 1130.26851156 1128.370562  ]",71.0,1047.8910298010314,56387.92850407986,57661.24352543547
61,"[ 431.7514512   452.73636395  473.28522197  493.39802525  513.07477379
  532.3154676   551.12010668  569.48869102  587.42122063  604.91769549
  621.97811563  638.60248103  654.79079169  670.54304762  685.85924881
  700.73939527  715.18348699  729.19152398  742.76350623  755.89943375
  768.59930653  780.86312457  792.69088789  804.08259646  815.0382503
  825.5578494   835.64139377  845.28888341  854.50031831  864.34196089
  871.6150239   879.51829459  883.10075389  878.00444019  876.37930959
  867.50957646  863.20342566  872.94332014  881.58722047  892.56595415
  894.9801822   902.83075063  900.54456396  915.06317895  913.89884035
  918.36501485  927.83250731  939.39208762  962.06328648  985.40985129
 1002.76674165 1021.77414397 1023.93404632 1027.62001271 1031.29763168
 1038.7823937  1050.17305496 1054.80785515 1066.24913957 1078.86508454
 1107.80404577 1115.59846928 1143.66146831 1162.59429704 1185.49974722
 1207.01983784 1232.43665648 1255.58846355 1283.52325373 1318.83743326
 1341.44534557 1355.96744322 1365.66353217 1368.76899947 1363.31427179
 1348.56089923 1351.94441248 1348.13016019 1358.95337206 1352.98895119
 1346.06588456 1313.46981045 1301.88438126 1281.93622631 1267.36578402
 1261.83414538 1245.87468124 1240.80834802 1243.3447952  1248.77407812
 1237.05242384 1216.08812782 1195.57742765 1172.56077534 1150.34998146
 1142.51553777 1136.72176    1131.40459214 1131.25555194 1137.94986184]",73.0,1020.0509691729187,55738.301532324374,49211.70989780768
62,"[ 475.4215783   490.20442196  504.7661141   519.10665473  533.22604385
  547.12428144  560.80136752  574.25730209  587.49208514  600.50571667
  613.29819669  625.86952519  638.21970217  650.34872764  662.2566016
  673.94332403  685.40889495  696.65331436  707.67658224  718.47869862
  729.05966347  739.41947681  749.55813864  759.47564894  769.17200773
  778.64721501  787.90127077  796.93417501  805.74592774  815.39480439
  822.70597865  830.85427682  829.18736492  824.88705348  833.54475223
  839.64970487  847.15938781  856.22270893  866.16436648  864.48207907
  862.40711806  863.89371025  877.36765674  879.93478867  892.15865219
  910.18541245  920.55837266  930.50721731  953.47217859  964.84198434
  984.55841363  990.71377403  988.90903519  992.85408543 1005.79355858
 1007.59125955 1031.34627807 1039.70456362 1042.71768899 1048.82130498
 1053.60285332 1060.26384395 1071.68140607 1075.68193578 1091.43745208
 1114.79130221 1132.05237311 1166.46193893 1194.6279646  1231.12289642
 1258.50692466 1276.14790603 1276.15307069 1282.40837572 1281.72908122
 1271.45432044 1274.71629213 1266.11937454 1258.52008163 1256.00544545
 1241.77349558 1225.0680893  1212.17182108 1198.06984093 1198.5493647
 1189.59849314 1172.43898293 1170.80716151 1169.43172418 1171.06081238
 1167.08444433 1146.04077293 1124.0349339  1127.73660377 1126.6901847
 1118.8902128  1121.38681132 1115.83070276 1094.37909059 1090.97330289]",73.0,972.3162821501966,53005.31339702458,48252.588957050924
63,"[ 360.70886142  384.51437522  407.8240919   430.63801144  452.95613385
  474.77845913  496.10498728  516.93571831  537.2706522   557.10978896
  576.45312859  595.30067109  613.65241646  631.5083647   648.8685158
  665.73286978  682.10142663  697.97418635  713.35114894  728.23231439
  742.61768272  756.50725392  769.90102798  782.79900492  795.20118472
  807.1075674   818.51815294  829.43294136  839.85193264  850.98066533
  859.20252382  868.13412371  867.03799753  862.97680623  868.0565836
  871.50401535  883.69555365  881.00988649  890.65894949  891.10868275
  894.14182986  897.60925402  903.62767985  914.51531901  923.34988994
  936.78603473  953.62850975  963.32860255  978.20878151  989.72254951
 1004.08232719 1021.08354582 1026.83070019 1034.34334569 1044.90129732
 1042.79290029 1058.25162258 1061.98400236 1057.97716595 1057.3375895
 1061.41582976 1072.98197473 1089.55784142 1086.40699232 1107.54091977
 1126.35260441 1152.77308623 1169.58580143 1193.09400694 1217.41116905
 1237.17869911 1248.23389624 1251.42517881 1252.96525151 1251.73427269
 1233.55381447 1239.33566697 1231.64372304 1232.39820499 1214.49073352
 1204.30668179 1188.76884766 1169.77335843 1156.78689989 1149.791078
 1144.28278294 1149.09421298 1155.9559714  1162.55912695 1158.56076661
 1151.73709254 1131.4420872  1116.89345965 1100.25497382 1088.29906593
 1079.18942668 1073.67319198 1067.25104126 1054.65207272 1046.16809114]",73.0,968.015344851602,52678.922687778424,49350.26064259737
64,"[ 337.85940804  366.36804591  394.20484164  421.36979522  447.86290666
  473.68417596  498.83360311  523.31118811  547.11693098  570.2508317
  592.71289027  614.5031067   635.62148099  656.06801313  675.84270313
  694.94555099  713.3765567   731.13572027  748.22304169  764.63852097
  780.38215811  795.4539531   809.85390595  823.58201665  836.63828521
  849.02271163  860.7352959   871.77603803  882.14493801  893.00688918
  900.86721155  909.2205851   917.94147016  917.59988074  915.87166573
  918.57938811  916.40505183  915.12378861  917.97693391  921.38061683
  916.90439213  924.37181015  919.47025587  919.8480874   927.40823908
  936.69279678  947.15930215  957.25280131  975.01806243  979.68299903
 1000.06844432 1001.22149991  999.65102665  995.55180468  999.59822452
  999.3482915  1001.28487928 1012.28696236 1020.55287263 1026.60387064
 1036.0507658  1043.52179093 1048.02349091 1063.59688738 1074.43393535
 1090.45421514 1103.99934762 1124.2316     1158.78424392 1192.06709016
 1211.38317099 1226.41435846 1229.75566462 1232.67292377 1220.48303276
 1218.45183707 1218.68126858 1224.96012523 1225.37194404 1220.79428475
 1222.09296624 1206.71012405 1185.16398419 1170.16777377 1160.52286505
 1151.82060134 1143.52434989 1139.72077093 1155.2538826  1147.93439761
 1144.17940706 1128.25193496 1120.28589618 1103.12579465 1086.54024555
 1070.56646625 1050.28590641 1046.59295956 1039.21301939 1042.6556038 ]",73.0,967.4356097123514,52402.19842895918,49003.94458438502
65,"[ 299.07178526  333.31612877  366.73888     399.34003895  431.11960562
  462.07758001  492.21396212  521.52875195  550.0219495   577.69355477
  604.54356776  630.57198847  655.7788169   680.16405305  703.72769692
  726.46974851  748.39020782  769.48907485  789.76634961  809.22203208
  827.85612227  845.66862018  862.65952581  878.82883917  894.17656024
  908.70268903  922.40722554  935.29016978  947.35152173  959.93848316
  969.0094488   978.60602391  981.54181252  971.69540217  977.50312565
  978.15926023  982.86927037  992.02500972  987.97737078  990.98651975
  994.54924609 1002.02040627 1004.23705941 1010.41812553 1018.46617698
 1028.33803119 1043.46168137 1055.98978721 1072.36811962 1076.09710752
 1089.69988509 1090.11337078 1086.99703097 1097.15743185 1104.28633001
 1107.22427831 1104.44848765 1107.28331524 1110.93995297 1121.96581308
 1128.01356065 1135.77403937 1142.68954762 1156.60872018 1169.65964799
 1184.38778273 1192.74576595 1206.40931991 1230.3669361  1263.65680007
 1273.7572693  1286.17133815 1282.59021991 1286.286757   1293.86615769
 1290.48677226 1286.49735046 1284.54776574 1273.75500855 1270.32052201
 1256.3680711  1233.39767941 1203.39664938 1182.45825342 1172.99068687
 1161.50541203 1151.07745331 1141.77546387 1142.1601995  1139.89531727
 1129.64691476 1109.42864898 1086.21832959 1054.93374106 1036.28249064
 1027.96370671 1017.64096595 1013.2948617  1007.83214128 1003.46772617]",74.0,1014.7991253848022,54509.90581515831,53606.876261476806
66,"[ 293.37272465  327.78842974  361.37703728  394.13854726  426.07295969
  457.18027455  487.46049186  516.91361161  545.53963381  573.33855844
  600.31038552  626.45511505  651.77274701  676.26328142  699.92671827
  722.76305756  744.77229929  765.95444347  786.30949009  805.83743915
  824.53829066  842.41204461  859.458701    875.67825983  891.07072111
  905.63608483  919.37435099  932.28551959  944.36959064  956.97553051
  966.05644006  975.65921843  967.79675859  969.52887818  965.75506365
  959.41080139  957.63893245  972.26033862  985.05245283  993.76978541
  996.67618957 1006.23739066 1012.11029519 1006.63941663  999.63930135
 1003.59646014 1008.47334789 1026.04660189 1029.4236647  1048.07624977
 1059.86801089 1067.48019549 1071.31145741 1084.40488529 1086.36965913
 1077.02859776 1076.48258601 1089.69054618 1095.80846288 1106.36460951
 1105.01443489 1116.41304214 1131.1620117  1149.45292302 1164.76288631
 1168.60053882 1183.78569607 1200.27404821 1220.80292022 1243.64030995
 1256.9825441  1261.99761016 1261.00237385 1262.87030883 1278.36937922
 1274.13862505 1269.09263261 1266.71352449 1269.93788108 1274.13958802
 1260.05499497 1242.80163294 1214.80518861 1190.84310334 1188.51875226
 1195.47632171 1178.82686013 1182.81968161 1176.02110131 1178.38738282
 1161.98294008 1152.5860756  1129.03947467 1114.01868152 1100.90939336
 1093.30100175 1091.11339105 1097.58268844 1111.02814377 1112.18552495]",74.0,1015.5404741478213,54915.749482639076,52174.56839181259
67,"[ 321.04330527  348.72567932  375.7524412   402.1235909   427.83912842
  452.89905376  477.30336692  501.0520679   524.1451567   546.58263332
  568.36449775  589.49075001  609.96139009  629.77641799  648.93583371
  667.43963725  685.28782861  702.48040779  719.01737479  734.89872961
  750.12447225  764.69460271  778.60912099  791.86802709  804.47132101
  816.41900275  827.71107232  838.3475297   848.3283749   858.77316431
  866.32322876  874.33723742  885.55643098  880.87556716  880.41334894
  881.45578885  875.31218932  880.17418255  879.97597444  885.51996564
  886.64265065  885.66959887  890.88977665  893.73746165  891.56865386
  905.29150566  907.1817631   919.25787758  937.89564639  939.26609533
  950.58226698  953.2926164   948.46443419  953.52102418  954.53719206
  960.84908014  973.91898165  971.32936714  979.25261571  980.9346938
  975.54689361  972.28136073  984.24459237  988.44358031 1003.64150746
 1019.42891101 1025.5677911  1033.1980112  1049.86048369 1078.10943715
 1088.16684502 1082.19363537 1096.81932754 1107.02039183 1108.82557693
 1119.08394201 1123.52789071 1124.77127915 1120.16892268 1117.01971833
 1116.02927534 1099.03457673 1081.46902261 1065.46405517 1064.6053774
 1068.26035005 1066.12928878 1064.31657598 1073.43086263 1076.36504909
 1077.49380219 1067.66430892 1041.68994654 1038.32938942 1025.62958071
 1009.26073335 1006.13242526 1003.61523823  998.05344364  999.60950649]",77.0,909.7658641756444,49095.990853630894,46776.57601028161
68,"[ 229.78491783  267.06533189  303.46257734  338.97665419  373.60756242
  407.35530204  440.21987305  472.20127546  503.29950925  533.51457444
  562.84647101  591.29519898  618.86075834  645.54314908  671.34237122
  696.25842475  720.29130967  743.44102598  765.70757368  787.09095277
  807.59116325  827.20820512  845.94207838  863.79278303  880.76031907
  896.84468651  912.04588533  926.36391554  939.79877715  953.85733397
  964.01899453  974.8043503   989.61195966  981.21056343  985.41147772
  997.63590473 1000.26787723 1008.99221423 1001.60388277 1000.70927218
 1002.81995712 1005.94566977 1010.96595343 1005.9204222  1012.61514702
 1013.55904336 1018.32682803 1027.98075073 1039.70610291 1041.96244555
 1047.67629844 1048.25771322 1050.84819342 1059.84913075 1062.90376547
 1064.60639393 1065.2200623  1072.99440066 1078.33027666 1073.50521535
 1057.87733723 1063.69130462 1070.2163171  1068.7020406  1081.62122204
 1082.18087022 1084.21596106 1099.07270604 1116.97029923 1136.28511146
 1150.77231407 1153.49823374 1151.00650563 1154.79690617 1155.15728052
 1163.1771581  1179.27543124 1176.55548838 1164.91838364 1151.2273065
 1143.21150781 1125.09275347 1105.02695286 1087.1863976  1082.57778994
 1082.12784714 1080.41639535 1075.99686883 1075.29811834 1071.79704751
 1057.23123615 1047.40089906 1020.24932867 1014.15704445 1002.90767829
  980.70520388  984.82059078  974.43783337  971.43386333  958.25481966]",76.0,963.5203340950881,51475.02021811039,51719.987376869394
69,"[ 174.41059843  213.20142757  251.08620184  288.06492124  324.13758576
  359.30419541  393.56475019  426.91925009  459.36769512  490.91008528
  521.54642057  551.27670098  580.10092652  608.01909719  635.03121298
  661.1372739   686.33727995  710.63123112  734.01912742  756.50096885
  778.0767554   798.74648709  818.5101639   837.36778583  855.3193529
  872.36486509  888.5043224   903.73772485  918.06507242  933.10031972
  944.00160294  955.6107859   959.99629837  969.9942494   974.44190464
  982.95492607  993.09899902  991.32746038  997.99158227 1005.90784041
 1010.63379921 1004.35629946 1004.69813862 1011.54515096 1019.0188305
 1019.52231423 1025.27927468 1016.6926889  1017.55277892 1023.31863278
 1038.05163017 1031.33782301 1034.50951919 1031.22314821 1026.60813277
 1024.9127402  1017.12302015 1015.6311618  1008.40267959 1007.54345327
 1000.69746774  997.27463322  994.31045818 1000.85613534 1012.15929012
 1023.45792785 1028.72463857 1044.77317543 1056.91895961 1079.29872594
 1083.85071562 1087.13746318 1091.8900759  1091.38967042 1107.19633745
 1112.20668541 1109.70005799 1112.3317101  1109.85139763 1103.93481082
 1103.30154562 1085.79263112 1065.98986574 1044.12980358 1033.66021192
 1021.26884966 1028.62865373 1038.51988269 1048.56658623 1051.99027694
 1058.63995622 1043.59336777 1035.00545059 1020.1843263  1024.42770224
 1034.00152469 1023.08314735 1029.29044663 1022.54176055 1023.78001173]",77.0,935.7118585891565,50179.017157754824,51022.59725744013
70,"[ 164.84356879  208.22473099  250.46272296  291.5575447   331.5091962
  370.31767746  407.98298849  444.50512928  479.88409983  514.11990015
  547.21253024  579.16199009  609.9682797   639.63139907  668.15134821
  695.52812712  721.76173579  746.85217422  770.79944242  793.60354038
  815.26446811  835.7822256   855.15681285  873.38822987  890.47647665
  906.4215532   921.22345951  934.88219559  947.39776143  960.11132732
  968.9993824   978.08543753  988.44771303  986.92827207  985.77891518
  988.22187088  980.83245635  984.43201188  981.93611926  985.84092231
  974.68658758  967.01128929  967.14760442  963.22957329  956.23992652
  948.70480416  954.27424429  953.09721526  952.36474539  952.06828051
  956.45398513  950.68448709  946.68740798  940.1823754   940.23931609
  934.84159791  930.12891098  933.57968591  923.40123806  934.6962276
  931.64163946  938.13083363  939.98121327  955.28746551  952.17820694
  960.27882037  973.67808471  991.12619659 1005.80641452 1032.82669534
 1042.5648807  1044.12363989 1046.59822996 1050.37470999 1047.77627656
 1040.59862606 1032.73303717 1032.85419645 1043.22607141 1036.5397291
 1036.87975462 1027.48534376 1013.05793675  992.70420958  980.04178316
  973.26821564  969.9324424   970.65877094  972.15027394  972.19488524
  962.13523678  945.91835047  927.36977264  916.28306752  903.62219272
  889.32211378  878.60948123  876.9885985   874.4332806   886.91259911]",73.0,894.1001579662819,47102.942577029804,47237.02250066856
71,"[ 149.16464865  193.10814655  235.88647006  277.49961919  317.94759393
  357.23039429  395.34802026  432.30047186  468.08774906  502.70985189
  536.16678033  568.45853439  599.58511406  629.54651935  658.34275026
  685.97380678  712.43968892  737.74039667  761.87593004  784.84628903
  806.65147363  827.29148385  846.76631969  865.07598114  882.22046821
  898.19978089  913.01391919  926.66288311  939.14667264  951.79818836
  960.61872856  969.60699494  972.67304897  964.69720981  971.94588271
  975.10690913  973.39081079  973.08664058  973.01721104  975.68034307
  966.74190387  963.68979105  955.33179304  956.63123656  961.78978216
  955.04096177  960.25575847  968.38973689  965.11494998  963.66386752
  962.44061155  949.97973892  943.16510299  944.04207844  938.97709982
  945.44427746  954.94686742  960.77645715  959.90536241  961.95732386
  955.76445486  964.05621154  960.72398565  973.826045    981.4607682
  979.19979766  990.18330228  997.92587366 1014.89062098 1033.63021039
 1047.37629869 1051.89118028 1057.38339533 1052.34592142 1053.918826
 1064.19879721 1064.33999659 1070.53032214 1068.37846901 1075.92336511
 1077.40383442 1064.62907134 1051.5323874  1045.77957873 1043.18143106
 1036.12974439 1028.66348199 1015.10213019 1009.50794132 1006.16783662
  990.83076991  978.68840785  961.43123483  941.02744556  928.08039001
  932.56883984  925.65519779  913.6874129   906.99858535  906.93836362]",80.0,905.0836093772194,48066.84647594362,47670.78004298943
72,"[ 173.50652558  217.72852581  260.78736308  302.6830374   343.41554877
  382.98489718  421.39108265  458.63410516  494.71396472  529.63066132
  563.38419498  595.97456568  627.40177343  657.66581823  686.76670007
  714.70441896  741.4789749   767.09036789  791.53859792  814.82366501
  836.94556914  857.90431032  877.69988854  896.33230381  913.80155614
  930.1076455   945.25057192  959.23033538  972.04693589  985.07526825
  994.19064806 1003.51775971 1012.05002567 1013.02968236 1010.89858434
 1012.00062603 1007.04036031 1001.85533341 1000.1118585   996.53603024
  990.42085999  986.46757605  988.45937802  990.79503727  988.01537196
  993.98990735  996.11435863 1011.24025628 1014.17166468 1008.80760124
 1007.20635353  997.41716963  984.31815885  978.55512246  976.74713869
  967.45148962  963.00504766  954.38613903  953.67598858  946.27412431
  930.33978902  930.09131352  919.9849514   913.33775758  918.41391741
  916.27767974  928.87076599  934.20280401  947.96477087  964.91584793
  983.19913696  984.47432797  987.75089897  988.91723941 1003.10757445
  991.3374574   983.20471396  985.50041261  978.2683763   980.13492051
  973.35722085  947.61540931  930.81159724  913.9449733   915.09582581
  919.73552093  923.88967899  916.20329071  924.64738013  919.27043266
  921.88138431  916.5472892   905.36489151  900.57835052  882.90534235
  876.80700573  874.00009172  860.2724652   864.83068518  860.82930254]",48.0,889.6795481755428,46256.44464353222,49895.94506878205
73,"[  89.654585    146.80529256  202.46500734  256.63372935  309.31145859
  360.49819505  410.19393875  458.39868967  505.11244781  550.33521319
  594.06698579  636.30776562  677.05755268  716.31634696  754.08414848
  790.36095722  825.14677318  858.44159638  890.2454268   920.55826445
  949.38010933  976.71096144 1002.55082077 1026.89968733 1049.75756112
 1071.12444213 1091.00033037 1109.38522584 1126.27912854 1143.50256678
 1155.59395562 1168.01488    1169.73012642 1170.16161548 1177.63212693
 1185.79365196 1194.80526228 1183.5501902  1176.80480197 1173.56097536
 1161.90334375 1159.86140397 1154.67882534 1150.1893224  1143.78193823
 1152.20513407 1155.64761059 1154.3180046  1147.13065016 1135.77119592
 1128.36011115 1132.22999455 1120.34605371 1112.68250293 1112.34763171
 1115.92494175 1112.62888711 1108.21340743 1100.48764246 1096.38831143
 1111.69224793 1106.26386308 1115.71775279 1121.17443136 1129.42465457
 1135.21892812 1157.2935491  1164.46330868 1181.17420168 1214.17116152
 1224.12345134 1225.64377969 1218.4485669  1212.03760766 1211.71944556
 1238.14608333 1227.15121505 1213.53039739 1200.20228283 1179.50948492
 1154.05058259 1128.30162487 1103.8386115  1088.33083922 1084.59452075
 1067.62611791 1054.68813202 1056.31181882 1063.81779994 1043.27394099
 1034.10145727 1020.91210974 1005.13341423  990.68336508  975.01663727
  976.94801727  958.59606674  951.56892419  934.46639231  917.6106543 ]",75.0,1034.9346833424206,53989.429442798384,56035.39707866899
74,"[ 151.0022134   201.47426043  250.58215655  298.32590177  344.70549608
  389.7209395   433.372232    475.65937361  516.58236431  556.1412041
  594.335893    631.16643099  666.63281807  700.73505425  733.47313953
  764.8470739   794.85685738  823.50248994  850.7839716   876.70130236
  901.25448222  924.44351117  946.26838922  966.72911636  985.8256926
 1003.55811794 1019.92639237 1034.9305159  1048.57048852 1062.2848711
 1071.75798106 1081.30550098 1084.42216974 1075.78339476 1076.58629695
 1076.27039419 1076.12933983 1080.26142861 1067.78185259 1067.14275972
 1062.0175986  1060.96533404 1059.81426    1052.70597314 1051.01329864
 1049.87457963 1047.62679466 1050.06697059 1040.7097904  1030.75777035
 1031.33980945 1017.6976711  1007.58143874 1001.44438988 1006.35083612
 1001.00379385  990.01823853  981.48379227  970.19519632  983.06081673
  976.49035495  970.59231249  981.48272737  987.59967287  992.5784435
  994.85330181 1003.97715295 1020.94449291 1026.69972841 1031.04588109
 1053.52811098 1060.89798645 1055.80137196 1054.54067318 1059.49834439
 1051.55646267 1057.32963398 1056.24944245 1052.72711458 1054.53066799
 1040.42431288 1021.79171411  988.95272839  976.25299341  973.08173774
  959.75392967  953.66915451  941.76798888  955.89902052  956.95127367
  938.53100017  922.94845236  905.24322035  898.27940022  893.59192259
  892.14228119  892.61219741  899.81136561  897.9422451   899.54736723]",32.0,939.9200917626099,48664.49602113598,51037.06060979968
75,"[ 898.88956701  929.87088819  960.30668245  990.19694981 1019.54169027
 1048.34090381 1076.59459046 1104.30275019 1131.46538302 1158.08248895
 1184.15406797 1209.68012008 1234.66064529 1259.09564359 1282.98511499
 1306.32905948 1329.12747706 1351.38036774 1373.08773151 1394.24956838
 1414.86587834 1434.93666139 1454.46191754 1473.44164679 1491.87584912
 1509.76452456 1527.10767308 1543.9052947  1560.15738942 1577.78892084
 1591.02499813 1605.64051212 1612.63875065 1608.45973035 1601.81135266
 1623.51768968 1612.78462361 1619.81602503 1615.45416377 1615.37528189
 1626.82267475 1647.28885761 1659.33793359 1698.35032747 1720.41587457
 1728.45523844 1776.8691056  1799.45351811 1820.88560816 1859.04410253
 1891.70856551 1909.12628468 1910.46963245 1926.25154361 1952.22266058
 1957.41230279 1976.45989326 2002.87796439 2030.14319093 2050.90923681
 2084.69761289 2084.89586746 2120.37560146 2138.65342662 2161.75278701
 2180.08108816 2191.17257941 2219.36030067 2252.22109374 2312.71849848
 2355.95855176 2378.97676944 2373.43932282 2374.60349498 2389.88003246
 2391.05170758 2419.45664059 2416.46492785 2449.28226895 2461.58668098
 2447.60519085 2424.65441441 2384.40554    2348.83518959 2325.49383257
 2315.1165696  2286.82986678 2285.29008499 2292.08371999 2284.51576039
 2251.91892002 2220.79617571 2215.91291064 2174.91299813 2165.80014508
 2139.76677189 2125.56293385 2111.78913669 2063.87596977 2062.73071615]",79.0,1872.566577112452,102090.71596280418,92839.29464988859
76,"[ 494.53224219  533.44180114  571.7119558   609.34270614  646.33405218
  682.68599392  718.39853135  753.47166448  787.9053933   821.69971781
  854.85463802  887.37015393  919.24626553  950.48297282  981.08027581
 1011.0381745  1040.35666888 1069.03575895 1097.07544472 1124.47572619
 1151.23660335 1177.3580762  1202.84014475 1227.682809   1251.88606893
 1275.44992457 1298.3743759  1320.65942292 1342.30506564 1365.89212574
 1383.67813816 1403.40556796 1431.87072259 1432.78696617 1450.96784991
 1462.19957725 1483.79730352 1486.05548455 1506.95214081 1516.2568077
 1525.56952481 1558.35015499 1579.47325388 1598.89511631 1607.87658198
 1616.48605505 1643.98022504 1649.25976806 1675.84642433 1709.85029842
 1713.64749784 1725.21409665 1737.05760769 1760.32906365 1774.55047733
 1763.39613134 1754.77009849 1765.2930102  1781.77470476 1775.51820941
 1772.93961872 1799.28202673 1835.20470783 1862.28099749 1893.4347145
 1923.57215018 1948.29442839 1998.79175678 2045.69006631 2112.37870741
 2164.17081163 2191.89336708 2207.19470131 2213.11971913 2217.05185484
 2228.07750983 2241.16096738 2249.47375123 2248.27580154 2236.10043228
 2227.91798226 2199.38478569 2166.82508985 2139.16866632 2146.20329804
 2151.88409394 2162.41919395 2167.86628498 2184.55247386 2190.9944278
 2191.02879371 2184.56578874 2181.94645475 2168.16305608 2136.51283043
 2132.48388779 2151.42105161 2157.09667483 2150.50773209 2146.60877549]",77.0,1699.137934814463,94442.55587800381,84732.51975725954
77,"[ 473.24678521  524.58207806  574.73081947  623.69300943  671.46864795
  718.05773501  763.46027063  807.6762548   850.70568752  892.54856879
  933.20489862  972.67467699 1010.95790392 1048.0545794  1083.96470343
 1118.68827602 1152.22529715 1184.57576684 1215.73968508 1245.71705187
 1274.50786721 1302.11213111 1328.52984355 1353.76100455 1377.8056141
 1400.66367221 1422.33517886 1442.82013407 1462.11853782 1482.41094227
 1497.15569099 1512.89444041 1522.90645461 1514.82318394 1519.12577597
 1525.26283733 1543.78719286 1563.92844713 1568.89469645 1580.66321287
 1578.76676455 1578.20896356 1593.99631879 1589.62149601 1587.77424721
 1617.22191274 1628.51443288 1650.98875185 1672.69247805 1691.66583607
 1687.08694793 1687.57151608 1681.78371003 1687.10491503 1687.83725533
 1682.14063062 1663.14121011 1676.73844438 1677.23553904 1690.21386738
 1699.94382192 1732.09301641 1745.48516884 1753.9339302  1764.89496469
 1792.61589451 1819.90994967 1845.95987709 1905.68340686 1965.85870086
 2006.8042186  2039.41747231 2050.42262779 2061.39421754 2074.19716517
 2085.89594542 2075.47503539 2083.11281752 2080.59871859 2083.64183666
 2076.76011327 2065.3135664  2012.97880501 2006.4706452  1997.12722804
 2011.26783324 2033.38343485 2034.85073754 2044.0812702  2036.68813602
 2047.12577706 2032.913543   2016.45241442 1999.16206318 1965.70491426
 1958.14093543 1956.96005486 1951.92748051 1946.88497149 1939.13226687]",75.0,1643.4854395536358,89977.98256069762,83622.9866819824
78,"[ 588.18584606  622.05959434  655.41935551  688.26512957  720.59691652
  752.41471637  783.71852911  814.50835475  844.78419328  874.5460447
  903.79390901  932.52778622  960.74767632  988.45357931 1015.6454952
 1042.32342398 1068.48736565 1094.13732022 1119.27328768 1143.89526803
 1168.00326128 1191.59726742 1214.67728645 1237.24331838 1259.2953632
 1280.83342091 1301.85749152 1322.36757502 1342.36367141 1364.24490464
 1380.81390287 1399.26803795 1409.89299756 1427.92280857 1438.20931649
 1464.13270948 1477.41740056 1482.73587167 1501.53927594 1503.15575499
 1516.69313542 1533.40420382 1541.15429431 1566.15879497 1592.70810179
 1596.85251482 1612.43023573 1640.50185932 1659.64419226 1664.96825721
 1669.06416624 1682.74601943 1685.19129517 1679.36067549 1709.86268961
 1715.3731131  1725.55946786 1733.59540731 1735.86950546 1731.87913168
 1770.14853374 1797.82363552 1807.10011853 1839.37734244 1840.22620406
 1862.0944451  1868.97088438 1925.61317644 1969.29990371 2016.15425674
 2048.49705809 2071.17413317 2076.11112289 2083.33481037 2068.31585806
 2056.82745436 2062.84431191 2086.17747589 2101.36447269 2094.10294451
 2072.08418638 2047.26773336 2014.8756393  1997.17843911 2006.87882982
 1996.20941621 1975.01536472 1985.19150392 2005.43072921 1990.77172087
 1982.17338472 1983.13989405 1967.74518126 1956.40387862 1963.54464202
 1972.49819879 1956.68781995 1951.9526376  1939.80738345 1956.67080196]",78.0,1626.9720460516198,89471.01057275693,82518.32645776478
79,"[ 464.89954285  508.5450305   551.37230174  593.38135655  634.57219494
  674.94481692  714.49922247  753.23541161  791.15338433  828.25314062
  864.5346805   899.99800396  934.643111    968.47000162 1001.47867582
 1033.66913361 1065.04137497 1095.59539991 1125.33120844 1154.24880054
 1182.34817623 1209.62933549 1236.09227834 1261.73700477 1286.56351478
 1310.57180837 1333.76188554 1356.13374629 1377.68739062 1400.95721618
 1418.34003003 1437.4390251  1436.15234631 1428.57476608 1410.0656646
 1430.79113862 1461.48923435 1481.22058881 1515.01350317 1521.21992282
 1531.89708257 1553.49688322 1581.85536362 1608.90039558 1650.69708833
 1682.18470884 1709.83823859 1728.23643515 1751.64372213 1787.86238498
 1816.47575316 1822.47848978 1816.20377442 1831.95512142 1836.80665901
 1840.57927855 1870.43351829 1900.9402366  1915.47731983 1935.94051679
 1956.40824851 1959.04065934 1975.78308324 1986.17767292 1993.97658129
 2019.66786949 2077.85482135 2117.56476567 2166.11439399 2221.03898411
 2264.50813816 2293.40603341 2330.62574618 2332.71155707 2345.08997572
 2350.25584807 2350.55995863 2345.82167365 2365.0826126  2388.18227746
 2388.75045138 2377.85012323 2364.80033265 2342.57644477 2313.30079871
 2326.99631643 2322.20007582 2320.10416896 2329.81590798 2350.76772869
 2354.77071062 2322.65960304 2314.48164989 2292.10332832 2312.12284495
 2320.82581595 2335.1625317  2346.56231142 2328.04939817 2305.17281261]",80.0,1789.984390206216,99989.05782805182,89214.52226088193
80,"[ 507.39741645  553.48179496  598.62169856  642.81712725  686.06808102
  728.37455987  769.73656382  810.15409285  849.62714696  888.15572617
  925.73983045  962.37945983  998.07461429 1032.82529384 1066.63149847
 1099.49322819 1131.41048299 1162.38326288 1192.41156786 1221.49539792
 1249.63475307 1276.82963331 1303.08003863 1328.38596904 1352.74742453
 1376.16440511 1398.63691078 1420.16494153 1440.74849737 1462.77605502
 1479.08218431 1496.8323154  1491.94317311 1493.8636143  1488.59008923
 1502.86670747 1515.13055057 1525.71389524 1539.1567102  1549.16686225
 1562.93686989 1575.27110579 1569.13617991 1594.30644362 1614.35003518
 1616.11206579 1645.7998624  1687.38144459 1720.5674137  1752.6813008
 1786.61925744 1794.27499765 1801.24052629 1805.45771357 1814.87333656
 1837.23713822 1849.0591032  1865.90684606 1882.80421686 1896.80455309
 1899.32856413 1903.32159083 1936.3943517  1963.05507157 1991.38312207
 2038.90097291 2075.64411522 2114.97220082 2171.40485109 2236.93208096
 2284.38528816 2325.88415512 2337.43002657 2358.57745225 2374.08250651
 2372.45950776 2384.98428961 2377.15590766 2358.36467912 2362.26776495
 2359.15406776 2336.35488522 2293.94916036 2296.85822749 2283.18349415
 2274.60929036 2265.02393283 2268.87632696 2286.48330641 2286.41756769
 2295.25077267 2270.41499166 2244.9706866  2221.99298909 2191.55869595
 2192.40169667 2181.17404383 2171.19742633 2167.08137756 2155.95121217]",76.0,1780.1149898718022,98733.77787013065,87606.17330568164
81,"[ 500.99899563  544.22532184  586.56378637  628.01438921  668.57713036
  708.25200983  747.03902761  784.93818371  821.94947812  858.07291085
  893.30848189  927.65619125  961.11603892  993.68802491 1025.37214921
 1056.16841183 1086.07681276 1115.097352   1143.23002956 1170.47484544
 1196.83179963 1222.30089213 1246.88212295 1270.57549209 1293.38099954
 1315.2986453  1336.32842938 1356.47035177 1375.72441248 1396.32395861
 1411.56894884 1428.1594245  1421.29818812 1419.15651356 1413.27965864
 1421.39905965 1418.79444097 1433.5792796  1430.2379169  1464.27118008
 1453.06535008 1481.83803588 1493.78952668 1508.47054643 1530.63793958
 1546.19038049 1557.12020386 1581.48644978 1620.95128665 1657.82803882
 1685.47944013 1706.09898752 1727.1500582  1739.29687637 1752.93168145
 1774.22210197 1775.75840426 1784.14817266 1809.23218177 1821.10406572
 1851.82416461 1842.29651072 1862.20052975 1902.38134951 1953.97415384
 1961.00180684 1996.87831602 2038.1806522  2094.89571125 2154.52302008
 2190.02272204 2219.7625607  2243.5381163  2232.76113821 2254.08304195
 2264.87980315 2244.30954668 2221.08712345 2210.90220059 2197.85409844
 2191.14118786 2151.51200966 2099.11570808 2068.5825412  2045.2448533
 2024.8442791  2003.78306944 1989.07947373 1967.50483241 1968.47174156
 1962.21591609 1934.25758805 1890.53585666 1853.99134139 1842.25981872
 1835.52250448 1817.13154751 1819.98141656 1814.6325431  1820.68887517]",75.0,1651.7049748243624,90644.87472589225,82753.77295420016
82,"[ 496.53660608  542.87056776  588.21957487  632.58362742  675.96272541
  718.35686885  759.76605772  800.19029203  839.62957178  878.08389697
  915.5532676   952.03768368  987.53714519 1022.05165214 1055.58120453
 1088.12580236 1119.68544563 1150.26013434 1179.84986849 1208.45464809
 1236.07447312 1262.70934359 1288.3592595  1313.02422085 1336.70422764
 1359.39927987 1381.10937754 1401.83452065 1421.5747092  1442.60509282
 1458.10022262 1474.88554749 1488.65261276 1469.54839278 1483.42216299
 1478.59881795 1487.40960667 1478.15689357 1487.51095559 1517.33332784
 1542.93691691 1564.83426118 1580.89107297 1605.15033225 1607.1576007
 1634.98692036 1664.86084506 1687.53463564 1710.74347504 1732.08303849
 1747.63479212 1730.38066193 1741.22373354 1751.68621543 1756.65030569
 1774.21445541 1790.34264539 1798.48567044 1809.66099049 1824.85416495
 1830.94855234 1848.91425978 1871.22827238 1871.91112667 1906.74899364
 1931.77515258 1940.52657554 1990.03350727 2037.76451748 2102.79635367
 2145.83045567 2157.52103293 2157.92826343 2168.88212988 2188.17502337
 2195.44375066 2215.27095519 2239.18320815 2234.65214703 2265.84412201
 2272.30657447 2258.63222471 2225.85689549 2222.21454049 2202.09523664
 2196.07855364 2198.14859455 2188.1752692  2197.78110367 2191.3082075
 2184.98034163 2174.56145276 2167.55740585 2156.11191525 2129.42480474
 2138.1618337  2133.82623711 2124.58826799 2135.63994287 2144.68988972]",80.0,1719.473671176915,95190.19091726778,86126.90424599207
83,"[ 490.61689702  535.14893047  578.75880772  621.44652876  663.21209359
  704.05550221  743.97675463  782.97585084  821.05279084  858.20757463
  894.44020222  929.7506736   964.13898877  997.60514773 1030.14915049
 1061.77099704 1092.47068738 1122.24822151 1151.10359944 1179.03682115
 1206.04788666 1232.13679597 1257.30354906 1281.54814595 1304.87058663
 1327.2708711  1348.74899937 1369.30497142 1388.93878727 1409.92456526
 1425.43995035 1442.30729758 1448.61532721 1442.84717002 1438.68030143
 1448.72494385 1453.63871984 1471.16869196 1483.96250723 1492.34363627
 1508.67874768 1513.56302785 1527.20687806 1515.9280686  1539.51228625
 1572.38128023 1575.49462143 1614.92974305 1656.15475019 1676.06057331
 1694.5641968  1695.17904014 1713.33918185 1722.04181279 1738.95810629
 1744.98565093 1752.30989025 1775.40022224 1799.03009196 1798.75706488
 1832.11975434 1857.46489487 1874.09721729 1906.40636025 1928.80707763
 1952.80439274 1981.59795931 2013.67176044 2074.68933641 2145.50187031
 2205.35157111 2222.42812133 2255.67756291 2273.83176883 2285.74791926
 2293.05327036 2286.6984326  2288.49884742 2317.96439523 2322.74443056
 2307.51564341 2294.86694771 2258.3871788  2239.07266404 2241.13910211
